0,1
-0.00506234413965,0.0460972568579
-0.0207605985037,0.0463341645885
-0.0468578553616,0.0510224438903
-0.0681795511222,0.0453366583541
-0.0895386533666,0.0343640897756
-0.105860349127,0.00832917705736
-0.107132169576,0.0073566084788
-0.0933167082294,0.0115087281796
-0.079463840399,0.02072319202
-0.0805610972569,0.0299750623441
-0.0817082294264,0.044289276808
-0.0729177057357,0.038578553616
-0.0743142144638,0.0278054862843
-0.0708104738155,0.031970074813
-0.0673940149626,0.0360099750623
-0.0790897755611,0.0399750623441
-0.10078553616,0.028927680798
-0.13246882793,0.0129551122195
-0.139164588529,0.00208229426434
-0.135847880299,-0.00881546134663
-0.12753117207,0.00532418952618
-0.11421446384,0.0194264339152
-0.0909226932668,0.0235536159601
-0.032680798005,0.0176932668329
0.0455735660848,0.0118827930175
0.158802992519,0.0159975062344
0.312057356608,-0.00493765586035
0.515274314214,-0.010897755611
0.74355361596,-0.00684538653367
0.981895261845,-0.012680798005
1.1952244389,0.0414962593516
1.3936159601,0.145735660848
1.51705735661,0.280012468828
1.52556109726,0.439314214464
1.38917705736,0.5836159601
1.15781795511,0.667905236908
0.856521197007,0.677144638404
0.525236907731,0.611284289277
0.22891521197,0.495399002494
0.0126059850374,0.319613466334
-0.113653366584,0.143827930175
-0.169912718204,0.00307980049875
-0.181172069825,-0.0976309226933
-0.162394014963,-0.123341645885
-0.123528678304,-0.0940274314214
-0.0996134663342,-0.0347506234414
-0.0806857855362,0.0145635910224
-0.0867082294264,0.0438154613466
-0.0927431421446,0.0480174563591
-0.118753117207,0.0322194513716
-0.134850374065,0.0214089775561
-0.150985037406,0.0105985037406
-0.167144638404,0.0148004987531
-0.183229426434,-0.0109975062344
-0.189289276808,-0.0117705735661
-0.175261845387,-0.027493765586
-0.176209476309,-0.0131172069825
-0.172094763092,0.00630922693267
-0.188004987531,0.0156982543641
-0.174027431421,0.0349750623441
-0.180224438903,0.0191770573566
-0.176720698254,0.00834164588529
-0.178640897756,-0.017506234414
-0.186097256858,-0.0083042394015
-0.174139650873,-0.014114713217
-0.182730673317,-0.0299625935162
-0.186932668329,-0.0359102244389
-0.186596009975,-0.0320698254364
-0.176533665835,-0.0234663341646
-0.18644638404,-0.0101620947631
-0.190985037406,-0.00215710723192
-0.199875311721,0.0105610972569
-0.187955112219,-0.0068578553616
-0.190274314214,-0.0391396508728
-0.176920199501,-0.0360473815461
-0.173117206983,-0.0275311720698
-0.184064837905,-0.0236159600998
-0.189900249377,-0.0344264339152
-0.200760598504,-0.0450374064838
-0.191645885287,-0.055536159601
-0.207605985037,-0.0410598503741
-0.2036159601,-0.0416832917706
-0.19463840399,-0.0224563591022
-0.175573566085,-0.018391521197
-0.15644638404,-0.0443266832918
-0.1622319202,-0.0602743142145
-0.172967581047,-0.0711471321696
-0.153703241895,-0.0570074812968
-0.134438902743,-0.0728678304239
-0.145137157107,-0.0687281795511
-0.150810473815,-0.0845511221945
-0.156471321696,-0.0803117206983
-0.167082294264,-0.0759850374065
-0.167655860349,-0.0715586034913
-0.158216957606,-0.0421695760599
-0.143728179551,-0.0528304239401
-0.139251870324,-0.0785411471322
-0.134750623441,-0.0842144638404
-0.130274314214,-0.0948753117207
-0.115810473815,-0.0905112219451
-0.1213840399,-0.0861471321696
-0.111957605985,-0.0768079800499
-0.112481296758,-0.0974314214464
-0.113017456359,-0.127905236908
-0.0985162094763,-0.133291770574
-0.0890149625935,-0.118628428928
-0.0845261845387,-0.103990024938
-0.0800748129676,-0.0894389027431
-0.0756234413965,-0.104925187032
-0.0811845386534,-0.115349127182
-0.0967581047382,-0.12572319202
-0.102394014963,-0.14114713217
-0.098029925187,-0.151546134663
-0.0986284289277,-0.146945137157
-0.0892394014963,-0.142306733167
-0.094812967581,-0.147568578554
-0.0953740648379,-0.147805486284
-0.0759351620948,-0.133079800499
-0.0615336658354,-0.118391521197
-0.0621321695761,-0.103765586035
-0.0477680798005,-0.109177057357
-0.0534538653367,-0.119513715711
-0.0541645885287,-0.134912718204
-0.0599002493766,-0.13529925187
-0.0506234413965,-0.10572319202
-0.0613341645885,-0.106122194514
-0.0570199501247,-0.101483790524
-0.0576558603491,-0.106733167082
-0.0432543640898,-0.111995012469
-0.0238778054863,-0.1222319202
-0.00952618453865,-0.082506234414
0.00978802992519,-0.0677930174564
0.0341271820449,-0.0680798004988
0.0434413965087,-0.0683291770574
0.0577182044888,-0.068566084788
0.0569077306733,-0.0588778054863
0.0511221945137,-0.0392019950125
0.0403241895262,-0.0194763092269
0.0246009975062,0.000336658354115
0.0188653366584,-0.00476309226933
0.00811720698254,-0.0048753117207
0.00743142144638,0.0150374064838
0.0217456359102,0.0298503740648
0.0210473815461,0.0446633416459
0.0302992518703,0.0394887780549
0.0345012468828,0.0143017456359
0.0236658354115,0.00910224438903
0.0328054862843,-0.00118453865337
0.0169451371571,-0.00649625935162
0.00613466334165,-0.00175810473815
-0.00971321695761,0.0180798004988
-0.0305236907731,0.0129800498753
-0.0262842892768,0.0128428927681
-0.0170324189526,0.0277057356608
-0.00774314214464,0.0275685785536
0.00649625935162,0.0374563591022
0.00569825436409,0.0423566084788
0.0148877805486,0.0222069825436
0.0139650872818,0.021970074813
0.00804239401496,0.0267206982544
0.00701995012469,0.0264089775561
0.000985037406484,0.0311596009975
-0.0100748129676,0.0359975062344
-0.00604738154613,0.0108229426434
-0.0120074812968,0.0155486284289
-0.00291770573566,0.0202244389027
-0.00881546134663,0.0448379052369
0.000274314214464,0.0544763092269
0.00935162094763,0.0641521197007
0.00336658354115,0.0337655860349
0.0173441396509,0.0133416458853
0.00628428927681,0.0128802992519
0.000261845386534,0.00743142144638
-0.0107356608479,0.0120324189526
-0.0216957605985,0.0167082294264
-0.0176184538653,0.00638403990025
-0.0284912718204,0.011072319202
-0.0142643391521,0.00571072319202
1.24688279302e-05,0.0203366583541
0.00435162094763,0.0249750623441
0.00366583541147,0.0246134663342
0.00800498753117,0.0192518703242
0.022319201995,0.0287905236908
0.00665835411471,0.0133291770574
-0.00399002493766,0.0278179551122
-0.0246259351621,0.0422693266833
-0.0202618453865,0.0417456359102
-0.0409226932668,0.0312593516209
-0.0265211970075,0.0257980049875
-0.0120573566085,0.0253865336658
-0.0125935162095,0.0399376558603
0.00179551122195,0.0495137157107
0.0111720698254,0.044102244389
0.0104613466334,0.0236658354115
0.00972568578554,0.013216957606
-0.0210349127182,0.0127306733167
-0.0218703241895,0.0122194513716
-0.0277182044888,0.0117082294264
-0.0285910224439,0.0312718204489
-0.0245012468828,0.0209351620948
-0.0154364089776,0.0255985037406
-0.0113965087282,0.0151995012469
-0.00238154613466,0.0547755610973
0.00160847880299,0.0593391521197
0.000548628428928,0.0588778054863
-0.0155735660848,0.0534289276808
-0.0117581047382,0.0229301745636
-0.00795511221945,0.00741895261845
-0.0141396508728,0.00692019950125
-0.0102743142145,0.0264089775561
-0.00140897755611,0.0259102244389
0.0074812967581,0.0304862842893
0.0314089775561,0.0450997506234
0.0453366583541,0.0546633416459
0.054289276808,0.0892144638404
0.0682418952618,0.103778054863
0.0771695760599,0.0883167082294
0.0860224438903,0.0728678304239
0.0947755610973,0.0574064837905
0.0934912718204,0.0519201995012
0.102219451372,0.0463466334165
0.121009975062,0.0507980049875
0.124862842893,0.0402743142145
0.133778054863,0.0197630922693
0.127842892768,0.0143017456359
0.137132169576,0.0338403990025
0.116683291771,0.053391521197
0.126620947631,0.0528802992519
0.107082294264,0.0422942643392
0.0930798004988,0.0167581047382
0.104688279302,0.0162344139651
0.0818079800499,0.0108104738155
0.0594513715711,0.0106109725686
0.0473690773067,-0.00928927680798
0.0153366583541,-0.0237780548628
0.0229800498753,-0.017855361596
0.0100748129676,0.00332917705736
0.00639650872818,0.0445760598504
0.00689526184539,0.0556359102244
0.00167082294264,0.0363591022444
-0.014102244389,0.0266209476309
-0.0202493765586,0.0164588528678
-0.0215960099751,0.00593516209476
-0.0329925187032,0.0151122194514
-0.0543640897756,-0.000798004987531
-0.0706359102244,0.00834164588529
-0.0618453865337,-0.0123690773067
-0.0679925187032,0.00206982543641
-0.0741770573566,0.0165835411471
-0.0703241895262,0.0211221945137
-0.056608478803,0.0305860349127
-0.0579675810474,0.0199625935162
-0.0444014962594,0.0143142144638
-0.0559725685786,0.0187157107232
-0.0526433915212,0.00809226932668
-0.0793391521197,0.00244389027431
-0.0910099750623,-0.0282418952618
-0.107680798005,-0.0538653366584
-0.109351620948,-0.0494014962594
-0.0709975062344,-0.0198503740648
0.00241895261845,0.00978802992519
0.115860349127,0.0143765586035
0.28933915212,-0.00109725685786
0.507817955112,-0.0216334164589
0.741321695761,-0.0271197007481
0.989887780549,-0.00761845386534
1.23844139651,0.0418703241895
1.43199501247,0.136321695761
1.53561097257,0.245735660848
1.51431421446,0.365149625935
1.35805486284,0.49457605985
1.10689526185,0.594077306733
0.780735660848,0.633640897756
0.469675810474,0.568204488778
0.203628428928,0.422693266833
0.0226184538653,0.237157107232
-0.0883665835411,0.0766832917706
-0.129401496259,-0.038753117207
-0.125461346633,-0.10421446384
-0.101558603491,-0.12470074813
-0.0726309226933,-0.100286783042
-0.0486907730673,-0.0608354114713
-0.0547007481297,-0.0113840399002
-0.0806733167082,0.0331421446384
-0.116571072319,0.0376932668329
-0.147406483791,0.0322443890274
-0.173304239401,0.00672069825436
-0.164226932668,0.00613466334165
-0.150099750623,0.0105610972569
-0.150935162095,0.00996259351621
-0.141795511222,0.00440149625935
-0.132643391521,-0.0061970074813
-0.138503740648,-0.026783042394
-0.149413965087,-0.0423441396509
-0.15036159601,-0.0329052369077
-0.161421446384,-0.0233665835411
-0.152668329177,-0.00882793017456
-0.159226932668,-0.00932668329177
-0.151209476309,-0.00485037406484
-0.153728179551,0.00463840399002
-0.146845386534,0.0141396508728
-0.165635910224,0.018578553616
-0.174987531172,0.0128428927681
-0.164788029925,-0.0282668329177
-0.16963840399,-0.044812967581
-0.16421446384,-0.0467456359102
-0.163204488778,-0.0389152119701
-0.166396508728,-0.0160847880299
-0.168715710723,-0.0130922693267
-0.17529925187,-0.0298503740648
-0.171359102244,-0.0411720698254
-0.162132169576,-0.0221072319202
-0.167730673317,-0.0327182044888
-0.173291770574,-0.0431546134663
-0.169002493766,-0.073578553616
-0.174775561097,-0.079114713217
-0.170673316708,-0.084825436409
-0.161546134663,-0.0755985037406
-0.162344139651,-0.0613965087282
-0.163042394015,-0.0520698254364
-0.153665835411,-0.0376683291771
-0.144201995012,-0.0632668329177
-0.13470074813,-0.0438528678304
-0.130187032419,-0.0395137157107
-0.130698254364,-0.0301620947631
-0.131221945137,-0.04572319202
-0.131783042394,-0.0613466334165
-0.142369077307,-0.0869825436409
-0.152942643392,-0.0926184538653
-0.143453865337,-0.0882668329177
-0.143902743142,-0.0789526184539
-0.124301745636,-0.0844763092269
-0.119663341646,-0.0949625935162
-0.104987531172,-0.0954738154613
-0.115286783042,-0.110960099751
-0.0855236907731,-0.0864713216958
-0.0957481296758,-0.0969077306733
-0.0960224438903,-0.102281795511
-0.0963216957606,-0.117618453865
-0.101658354115,-0.137955112219
-0.0970448877805,-0.143304239401
-0.102431421446,-0.133628428928
-0.112842892768,-0.118877805486
-0.113216957606,-0.119039900249
-0.0936034912718,-0.124177057357
-0.0889650872818,-0.129351620948
-0.06427680798,-0.12957605985
-0.0546134663342,-0.099825436409
-0.0549127182045,-0.0950997506234
-0.0652867830424,-0.0953865336658
-0.05572319202,-0.115698254364
-0.0712094763092,-0.130997506234
-0.0817581047382,-0.121284289277
-0.0822817955112,-0.131558603491
-0.0927805486284,-0.121733167082
-0.0832543640898,-0.121895261845
-0.0736783042394,-0.122019950125
-0.069114713217,-0.122157107232
-0.0445012468828,-0.102331670823
-0.0299127182045,-0.102481296758
0.00465087281796,-0.0776184538653
-0.00583541147132,-0.0877680798005
0.00364089775561,-0.102905236908
-0.0169201995012,-0.103079800499
-0.012506234414,-0.0783167082294
-0.0280673316708,-0.0634788029925
-0.0235910224439,-0.038566084788
-0.00912718204489,-0.033566084788
-0.00963840399002,-0.0485286783042
0.00986284289277,-0.0434912718204
0.0243391521197,-0.028566084788
0.0438279301746,-0.00870324189526
0.0382917705736,0.0162094763092
0.0277306733167,0.0111346633416
0.0270947630923,0.00605985037406
0.016421446384,0.0109600997506
0.00074812967581,-0.00916458852868
-0.0199501246883,0.00569825436409
-0.0206234413965,0.0256109725686
-0.0312593516209,0.0255735660848
-0.0268827930175,0.0355610972569
-0.0224688279302,0.0155735660848
-0.013029925187,0.0255610972569
-0.00854114713217,0.0355236907731
0.00593516209476,0.0504613466334
0.00537406483791,0.0654239401496
-0.000274314214464,0.0504488778055
0.00907730673317,0.0354488778055
-0.00668329177057,0.0153740648379
-0.0273815461347,0.000299251870324
-0.0430798004988,0.0202244389027
-0.0387655860349,0.0252493765586
-0.0444389027431,0.0253366583541
-0.0400872817955,0.0203990024938
-0.04072319202,0.01036159601
-0.0413341645885,0.0102992518703
-0.0220074812968,0.0152119700748
-0.0176932668329,0.0251246882793
-0.0134289276808,0.0150374064838
-0.0142269326683,-0.00501246882793
-0.0100498753117,-0.010174563591
-0.0108229426434,0.00460099750623
-0.0166209476309,0.0143017456359
-0.0323940149626,0.0241521197007
-0.0331795511222,0.0290274314214
-0.0290024937656,0.013927680798
-0.0198753117207,0.00877805486284
-0.01572319202,0.0134912718204
-0.00655860349127,0.0131670822943
-0.0124064837905,0.0278179551122
-0.013216957606,0.0325187032419
-0.0240274314214,0.0171820448878
-0.0298379052369,-0.00315461346633
-0.0305860349127,0.00649625935162
-0.0362718204489,0.0161596009975
-0.0319201995012,0.0159476309227
-0.0325187032419,0.0307855361596
-0.0230922693267,0.0156109725686
-0.0136408977556,0.00537406483791
-0.00415211970075,0.00507481296758
-0.00466334164589,0.0297007481297
-0.0201496259352,0.0343142144638
-0.0305735660848,0.0389526184539
-0.0309975062344,0.0386034912718
-0.0314089775561,0.013216957606
-0.0418453865337,0.00781795511222
-0.0322693266833,0.00743142144638
-0.0327182044888,0.0121197007481
-0.0381546134663,0.0368578553616
-0.0236034912718,0.0215960099751
-0.029102244389,0.0112842892768
-0.0195635910224,0.0259476309227
-0.0301122194514,0.0405610972569
-0.01572319202,0.0551496259352
-0.0263591022444,0.0496758104738
-0.0320822942643,0.0291770573566
-0.0428054862843,0.00870324189526
-0.0335536159601,-0.00674563591022
-0.0343391521197,0.00288029925187
-0.0401371571072,0.0225187032419
-0.0359351620948,0.0321571072319
-0.0117581047382,0.0268079800499
0.0123815461347,0.0314837905237
0.0215336658354,0.0511596009975
0.0306234413965,0.0608104738155
0.0296633416459,0.0703990024938
0.0286533665835,0.0699625935162
0.0226558603491,0.0594887780549
0.0316583541147,0.0590648379052
0.0106359102244,0.0536907730673
0.039650872818,0.0683042394015
0.0536783042394,0.0929426433915
0.0677306733167,0.0925810473815
0.106882793017,0.0772568578554
0.131034912718,0.0619825436409
0.135249376559,0.0716334164589
0.139389027431,0.0712094763092
0.138466334165,0.0606857855362
0.14246882793,0.0450623441397
0.116433915212,0.0194887780549
0.105461346633,0.00405236907731
0.089650872818,0.00870324189526
0.0791271820449,0.0233541147132
0.0790897755611,0.0229551122195
0.064650872818,0.0124688279302
0.0558354114713,0.0120448877805
0.0576558603491,0.00165835411471
0.0600748129676,0.0113965087282
0.0429675810474,0.0313466334165
0.0261097256858,0.0415336658354
0.00918952618454,0.0519950124688
-0.0281546134663,0.0327930174564
-0.0311221945137,0.0238778054863
-0.0549127182045,0.0101122194514
-0.0595012468828,0.0111596009975
-0.0597506234414,0.0267955112219
-0.0653990024938,0.0119825436409
-0.0563092269327,0.00177057356608
-0.0523067331671,0.00128428927681
-0.0483167082294,0.000673316708229
-0.049289276808,0.0299625935162
-0.0702244389027,0.0292643391521
-0.0861097256858,0.0286034912718
-0.0920448877805,0.0180548628429
-0.103054862843,0.0126184538653
-0.109177057357,-0.0127057356608
-0.0904114713217,0.00193266832918
-0.0917331670823,0.0164588528678
-0.093042394015,0.0259850374065
-0.0893142144638,0.0205236907731
-0.0905735660848,0.0100374064838
-0.101845386534,0.00955112219451
-0.10312967581,0.00902743142145
-0.0945012468828,0.00344139650873
-0.080897755611,0.00781795511222
-0.027319201995,-0.00281795511222
0.0611970074813,-0.0133665835411
0.189738154613,-0.0237780548628
0.363241895262,-0.0191521197007
0.581783042394,-0.0345137157107
0.835349127182,-0.0348753117207
1.09896508728,-0.00523690773067
1.33258104738,0.0744139650873
1.51120947631,0.204089775561
1.52987531172,0.348690773067
1.43355361596,0.498229426434
1.20729426434,0.6077680798
0.89108478803,0.622306733167
0.544925187032,0.571907730673
0.253815461347,0.456533665835
0.0377057356608,0.27114713217
-0.0933665835411,0.105760598504
-0.169351620948,-0.0396259351621
-0.180311720698,-0.120012468828
-0.121246882793,-0.120436408978
-0.0871571072319,-0.0709102244389
-0.0430922693267,-0.00637157107232
-0.0539650872818,0.0181421446384
-0.064825436409,0.0426309226933
-0.0906857855362,0.00711970074813
-0.121546134663,-0.00837905236908
-0.142381546135,-0.0138279301746
-0.163204488778,-0.0292643391521
-0.16897755611,-0.0146259351621
-0.164725685786,-0.0199501246883
-0.150436408978,-0.0252867830424
-0.14614713217,-0.000648379052369
-0.131832917706,0.00895261845387
-0.137568578554,0.00351620947631
-0.148354114713,0.00304239401496
-0.154102244389,0.00760598503741
-0.159862842893,-0.017855361596
-0.155586034913,-0.0183665835411
-0.146246882793,-0.00885286783042
-0.14687032419,-0.0193017456359
-0.157543640898,-0.00977556109726
-0.163241895262,-0.0301995012469
-0.149164588529,-0.0356982543641
-0.15036159601,-0.0312094763092
-0.151907730673,-0.0117206982544
-0.139002493766,-0.0122194513716
-0.151695760599,-0.0226932668329
-0.14506234414,-0.0331920199501
-0.149077306733,-0.0538528678304
-0.1486159601,-0.0497880299252
-0.153366583541,-0.0410473815461
-0.173054862843,-0.0476309226933
-0.177356608479,-0.0444887780549
-0.185972568579,-0.0464463840399
-0.17385286783,-0.0484788029925
-0.160972568579,-0.0353990024938
-0.157381546135,-0.0220573566085
-0.153316708229,-0.0333167082294
-0.15897755611,-0.039114713217
-0.159488778055,-0.0646009975062
-0.160049875312,-0.0699376558603
-0.165635910224,-0.0752493765586
-0.161284289277,-0.0656234413965
-0.171970074813,-0.071072319202
-0.162605985037,-0.0815336658354
-0.15819201995,-0.0820199501247
-0.138628428928,-0.0774688279302
-0.128927680798,-0.0779426433915
-0.124152119701,-0.0584663341646
-0.109389027431,-0.0589152119701
-0.124625935162,-0.0843391521197
-0.129925187032,-0.109713216958
-0.130261845387,-0.120087281796
-0.130610972569,-0.125461346633
-0.125922693267,-0.115847880299
-0.121209476309,-0.101159600998
-0.111433915212,-0.0964089775561
-0.111596009975,-0.116596009975
-0.106733167082,-0.12674563591
-0.0868453865337,-0.121920199501
-0.0819077306733,-0.107094763092
-0.0769950124688,-0.107256857855
-0.0771695760599,-0.0974688279302
-0.0724314214464,-0.122693266833
-0.0727306733167,-0.127880299252
-0.073029925187,-0.133067331671
-0.0883541147132,-0.143216957606
-0.0936533665835,-0.138391521197
-0.0989152119701,-0.118528678304
-0.109177057357,-0.123665835411
-0.104413965087,-0.118765586035
-0.089650872818,-0.128827930175
-0.0849127182045,-0.118890274314
-0.0601620947631,-0.0989650872818
-0.0704738154613,-0.104114713217
-0.0558354114713,-0.104301745636
-0.061246882793,-0.129476309227
-0.0516708229426,-0.14463840399
-0.0521072319202,-0.139725685786
-0.0575311720698,-0.119825436409
-0.0679800498753,-0.119975062344
-0.0734289276808,-0.110112219451
-0.0688029925187,-0.110211970075
-0.0541521197007,-0.110274314214
-0.0294763092269,-0.105336658354
-0.0147880299252,-0.0704613466334
-0.0250997506234,-0.0406234413965
-0.0104114713217,-0.0207855361596
-0.0107605985037,-0.0409102244389
-0.00114713216958,-0.0459725685786
0.0134164588529,-0.0560349127182
0.0179925187032,-0.0411346633416
0.0125935162095,-0.0162219451372
0.0121945137157,-0.0162593516209
0.0118204488778,-0.00625935162095
0.00142144638404,-0.00615960099751
0.0109975062344,0.00894014962594
0.020536159601,0.0139775561097
0.0200249376559,0.0339650872818
0.00951371571072,0.0390024937656
0.00399002493766,0.0240399002494
-0.00155860349127,0.0190648379052
-0.00209476309227,0.0090897755611
-0.00261845386534,0.019102244389
-0.00810473815461,0.029114713217
-0.00857855361596,0.0541895261845
-0.00903990024938,0.0543640897756
-0.0145760598504,0.0495261845387
-0.0101371571072,0.034650872818
-0.00567331670823,0.0297880299252
-0.00125935162095,0.029825436409
0.00319201995012,0.0448379052369
-0.00733167082294,0.0348503740648
-0.00286783042394,0.014812967581
-0.0184164588529,0.00481296758105
-0.013927680798,-0.000236907730673
-0.019463840399,0.00977556109726
-0.01,0.0248877805486
-0.0105610972569,0.0350623441397
-0.0160847880299,0.0402244389027
-0.0166832917706,0.035349127182
-0.0123067331671,0.0303740648379
-0.0180174563591,0.0403117206983
-0.00870324189526,0.0501620947631
-0.00443890274314,0.0549625935162
-0.010187032419,0.0347506234414
-0.0159351620948,0.0195386533666
-0.00659600997506,-0.00068578553616
-0.0121820448878,-0.0108478802993
0.0022319201995,0.00903990024938
0.00167082294264,0.0189526184539
0.00609725685786,0.0388403990025
0.0104987531172,0.0336533665835
0.00492518703242,0.0284538653367
0.00937655860349,0.0232418952618
-0.00123441396509,0.0330548628429
0.00824189526185,0.0329052369077
-0.00221945137157,0.0227805486284
-0.0276433915212,0.00259351620948
-0.0379426433915,-0.0126433915212
-0.0581421446384,0.00713216957606
-0.0533167082294,0.0319825436409
-0.0384788029925,0.0418453865337
-0.0236907730673,0.0566458852868
-0.00887780548628,0.0413715710723
0.00584788029925,0.0160598503741
0.015536159601,0.0106982543641
0.0152119700748,0.0153740648379
-0.00516209476309,0.0200623441397
-0.0255610972569,0.0347506234414
-0.0409850374065,0.00435162094763
-0.046421446384,0.00899002493766
-0.0368329177057,0.00865336658354
-0.0322443890274,0.0183790523691
-0.027680798005,0.0331546134663
-0.0231920199501,0.0429426433915
-0.00875311720698,0.0377306733167
-0.00941396508728,0.0224314214464
-0.00514962593516,0.00211970074813
0.00406483790524,0.0117581047382
0.00325436408978,0.0313965087282
-0.0175935162095,0.026072319202
-0.0234289276808,0.0257356608479
-0.0292144638404,0.0202992518703
-0.0199875311721,0.00495012468828
-0.0106982543641,0.0246134663342
0.00357855361596,0.0443890274314
0.00779301745636,0.0691645885287
0.0219451371571,0.0738778054863
0.0260598503741,0.0735411471322
0.0351496259352,0.0331920199501
0.0492144638404,0.0427930174564
0.0583416458853,0.0624438902743
0.0624563591022,0.0621072319202
0.0615960099751,0.0617456359102
0.0557481296758,0.0713715710723
0.0698877805486,0.0660224438903
0.0840523690773,0.0707356608479
0.113216957606,0.0754488778055
0.112418952618,0.0751496259352
0.121645885287,0.0898628428928
0.136034912718,0.0644887780549
0.135635910224,0.024114713217
0.145536159601,0.00872817955112
0.140810473815,0.0083042394015
0.131620947631,0.0178678304239
0.123054862843,0.0273940149626
0.110187032419,0.0269825436409
0.102917705736,0.0118079800499
0.106097256858,0.00201995012469
0.104351620948,0.0125935162095
0.0923815461347,0.0135286783042
0.0798379052369,0.0246882793017
0.0615336658354,0.0258728179551
0.0423441396509,0.0219451371571
0.0374189526185,0.0127556109726
0.026957605985,0.00307980049875
0.00112219451372,0.0229675810474
-0.0149127182045,0.012493765586
-0.0309850374065,0.0167705735661
-0.0369451371571,0.00609725685786
-0.0328179551122,-0.00441396508728
-0.0535910224439,0.000249376558604
-0.0494014962594,0.0199501246883
-0.050187032419,0.034650872818
-0.0510349127182,0.0391770573566
-0.0519825436409,0.0336907730673
-0.0479925187032,0.00320448877805
-0.059114713217,-0.00733167082294
-0.0653366583541,-0.0178304239401
-0.0815586034913,-0.00339152119701
-0.0827930174564,-0.00895261845387
-0.0940149625935,-0.00947630922693
-0.0852369077307,-0.0199127182045
-0.0764837905237,-0.0102867830424
-0.0827805486284,-0.0206483790524
-0.079102244389,-0.000997506234414
-0.0753865336658,0.013566084788
-0.0966708229426,-0.00688279301746
-0.0979177057357,-0.0223067331671
-0.0891521197007,-0.0277306733167
-0.0503990024938,-0.0231172069825
0.0283541147132,-0.00356608478803
0.137194513716,-0.00401496259352
0.276047381546,-0.0194389027431
0.489925187032,-0.0447506234414
0.733902743142,-0.0600124688279
0.997917705736,-0.0402743142145
1.24699501247,0.0394264339152
1.45608478803,0.149002493766
1.5602244389,0.27355361596
1.5393765586,0.398079800499
1.4085286783,0.507655860349
1.142680798,0.577256857855
0.846857855362,0.611845386534
0.531059850374,0.566421446384
0.255336658354,0.44102244389
0.0496633416459,0.265685785536
-0.0709476309227,0.09036159601
-0.131571072319,-0.0449501246883
-0.122206982544,-0.0952992518703
-0.102867830424,-0.105673316708
-0.0685411471322,-0.0811221945137
-0.0492144638404,-0.0515586034913
-0.0448753117207,-0.0270324189526
-0.0505112219451,-0.017506234414
-0.0761097256858,-0.00795511221945
-0.141695760599,-0.00840399002494
-0.1622319202,-0.00386533665835
-0.177743142145,-0.0342643391521
-0.17319201995,-0.01963840399
-0.163653366584,-0.0250124688279
-0.144139650873,-0.000423940149626
-0.12463840399,0.00413965087282
-0.140199501247,-0.00634663341646
-0.130798004988,-0.0318952618454
-0.141546134663,-0.0424563591022
-0.147493765586,-0.0479675810474
-0.163765586035,-0.0384788029925
-0.185473815461,-0.0339650872818
-0.207643391521,-0.0394139650873
-0.210374064838,-0.039812967581
-0.193690773067,-0.0402493765586
-0.182543640898,-0.0208354114713
-0.171845386534,-0.0167082294264
-0.1863840399,-0.0178927680798
-0.175860349127,-0.024463840399
-0.184962593516,-0.0364089775561
-0.193453865337,-0.0435536159601
-0.191184538653,-0.0356359102244
-0.188154613466,-0.037506234414
-0.189463840399,-0.0390399002494
-0.185249376559,-0.0551122194514
-0.18072319202,-0.0657730673317
-0.170985037406,-0.0561097256858
-0.171246882793,-0.0563092269327
-0.166521197007,-0.0414837905237
-0.15687032419,-0.0418453865337
-0.157281795511,-0.0724064837905
-0.157730673317,-0.0730798004988
-0.148142144638,-0.0637780548628
-0.148541147132,-0.0694264339152
-0.15891521197,-0.0799501246883
-0.164226932668,-0.0853865336658
-0.169451371571,-0.0958229426434
-0.174588528678,-0.0912593516209
-0.169675810474,-0.0815960099751
-0.169725685786,-0.0668827930175
-0.159750623441,-0.0721072319202
-0.159788029925,-0.0873441396509
-0.139825436409,-0.0826309226933
-0.139837905237,-0.0829675810474
-0.139887780549,-0.0933042394015
-0.13493765586,-0.108603491272
-0.135024937656,-0.12385286783
-0.130137157107,-0.149052369077
-0.120249376559,-0.144226932668
-0.11536159601,-0.134413965087
-0.100448877805,-0.13457605985
-0.100473815461,-0.144675810474
-0.100511221945,-0.134725685786
-0.085536159601,-0.129800498753
-0.0905860349127,-0.114900249377
-0.0856608478803,-0.125074812968
-0.0907730673317,-0.135274314214
-0.0859476309227,-0.160436408978
-0.0911097256858,-0.175486284289
-0.0762593516209,-0.165498753117
-0.0764588528678,-0.145498753117
-0.086608478803,-0.150536159601
-0.0667456359102,-0.135586034913
-0.0918578553616,-0.130673316708
-0.0919326683292,-0.130710723192
-0.0870698254364,-0.105735660848
-0.0872568578554,-0.0958104738155
-0.087493765586,-0.0909850374065
-0.0827057356608,-0.126209476309
-0.0729675810474,-0.151371571072
-0.0731795511222,-0.161433915212
-0.0734039900249,-0.141483790524
-0.0536284289277,-0.131521197007
-0.0488403990025,-0.111583541147
-0.0240399002494,-0.0966708229426
-0.0242269326683,-0.0767206982544
-0.00438902743142,-0.0467082294264
-0.00455112219451,-0.0216209476309
0.000224438902743,-0.0115960099751
-0.0100623441397,-0.0116458852868
-0.015349127182,-0.0317955112219
-0.00568578553616,-0.031970074813
-0.00593516209476,-0.0320448877805
-0.00114713216958,-0.0120573566085
0.00862842892768,0.0180174563591
-0.0065710723192,0.0130798004988
-0.00678304239401,0.0181421446384
-0.0019825436409,0.00320448877805
-0.00720698254364,0.00331670822943
-0.0174314214464,0.0184538653367
-0.0177306733167,0.0435037406484
-0.0281047381546,0.0485037406484
-0.0435536159601,0.0284164588529
-0.0490274314214,0.00839152119701
-0.0495012468828,0.00344139650873
-0.0299625935162,0.018578553616
-0.0353865336658,0.0337905236908
-0.0257855361596,0.0239526184539
-0.0211221945137,0.0290399002494
-0.0314588528678,0.0191271820449
-0.0217581047382,0.0292269326683
-0.0121321695761,0.0293640897756
-0.0175436408978,0.0545261845387
-0.0229800498753,0.0396009975062
-0.0334663341646,0.0196259351621
-0.0339152119701,0.0045885286783
-0.0443765586035,0.00463840399003
-0.0348379052369,0.00977556109726
-0.0353241895262,0.0199875311721
-0.0357730673317,0.0351620947631
-0.0112344139651,0.0302992518703
-0.0166583541147,0.0353241895262
-0.0120698254364,0.03536159601
0.0025187032419,0.0354364089776
-0.00798004987531,0.0254738154613
-0.0185162094763,0.0554488778055
-0.019114713217,0.020349127182
-0.0397506234414,0.0151620947631
-0.03536159601,1.24688279302e-05
-0.0309725685786,-6.23441396509e-05
-0.0215835411471,0.0249750623441
-0.012144638404,0.0350124688279
-0.0126558603491,0.0350249376559
-0.00812967581047,0.0299127182045
-0.0135536159601,0.0247630922693
-0.00894014962594,0.034650872818
-0.0193017456359,0.0545137157107
-0.019650872818,0.0543266832918
-0.0150249376559,0.034102244389
-0.0353740648379,0.00885286783042
-0.0356608478803,0.00866583541147
-0.040897755611,0.00852867830424
-0.0361221945137,0.00841645885287
-0.0463092269327,0.0333541147132
-0.0414463840399,0.0231795511222
-0.0315586034913,0.0179177057357
-0.00664588528678,0.0376558603491
-0.00172069825436,0.0273940149626
0.00311720698254,0.0421695760599
-0.0120573566085,0.0469201995012
-0.0172817955112,0.0316334164589
-0.0175436408978,0.00629675810474
-0.0278054862843,0.00597256857855
-0.0330548628429,0.010710723192
-0.0283541147132,0.0304613466334
-0.0386658354115,0.0352244389027
-0.0289900249377,0.0299750623441
-0.0243890274314,0.0197755610973
-0.024825436409,0.0295635910224
-0.00529925187032,0.0393017456359
-0.000897755610973,0.0390274314214
0.00347880299252,0.0586783042394
0.0178179551122,0.0383167082294
0.0171695760599,0.0229177057357
0.0215586034913,0.0175685785536
0.025885286783,0.0272568578554
0.00523690773067,0.051970074813
0.00462593516209,0.0867082294264
0.0140149625935,0.0764713216958
0.0184538653367,0.0712219451372
0.0428927680798,0.0759476309227
0.0772693266833,0.0756608478803
0.081608478803,0.0953241895262
0.100897755611,0.0899750623441
0.100137157107,0.0996009975062
0.114351620948,0.0742394014963
0.118591022444,0.0439027431421
0.12789276808,0.0386034912718
0.132206982544,0.0382418952618
0.111558603491,0.0479301745636
0.115935162095,0.0525935162095
0.110286783042,0.0522443890274
0.104650872818,0.0419077306733
0.0990149625935,0.0365710723192
0.0934164588529,0.0412344139651
0.073029925187,0.0358603491272
0.0678678304239,0.0304613466334
0.058042394015,0.00502493765586
0.0337905236908,-0.0154114713217
0.0101620947631,-0.0258603491272
-0.00279301745636,-0.0212593516209
-0.00511221945137,0.00852867830424
-0.0168827930175,0.023578553616
-0.0183790523691,0.0439526184539
-0.0299251870324,0.0196633416459
-0.0267955112219,0.0156234413965
-0.0393516209476,0.0217705735661
-0.0326433915212,0.0279675810474
-0.046783042394,0.0340149625935
-0.0616209476309,0.0247506234414
-0.081970074813,0.0101122194514
-0.0826683291771,6.23441396509e-05
-0.0785411471322,-0.0103117206983
-0.0693890274314,-0.00583541147132
-0.070174563591,0.0185411471322
-0.0658478802993,0.0229301745636
-0.0814837905237,0.0323566084788
-0.0821197007481,0.0218079800499
-0.0928054862843,0.0112718204489
-0.0785536159601,0.0157356608479
-0.0895511221945,0.0201995012469
-0.0956733167082,0.0146882793017
-0.106832917706,0.00412718204489
-0.118042394015,-0.0213341645885
-0.114239401496,-0.0317456359102
-0.11042394015,-0.0321072319202
-0.0865586034913,-0.0174688279302
-0.0677182044888,0.0171321695761
-0.00384039900249,0.0367331670823
0.0850249376559,0.0213466334165
0.213877805486,0.000960099750623
0.392730673317,-0.0194014962594
0.596521197007,-0.029825436409
0.825286783042,-0.0352992518703
1.06406483791,-0.0207481296758
1.27794264339,0.0488403990025
1.46189526185,0.138566084788
1.55588528678,0.258341645885
1.52988778055,0.408142144638
1.36400249377,0.547855361596
1.11314214464,0.632543640898
0.802306733167,0.627219451372
0.486521197007,0.536895261845
0.225760598504,0.406533665835
0.0300623441397,0.211122194514
-0.0906109725686,0.0556483790524
-0.151271820449,-0.0548379052369
-0.161920199501,-0.115236907731
-0.14253117207,-0.125548628429
-0.118104738155,-0.0757855361596
-0.0836284289277,-0.0109850374065
-0.0691396508728,0.0386783042394
-0.0896134663342,0.0683416458853
-0.105112219451,0.048029925187
-0.120586034913,0.00771820448878
-0.141122194514,-0.0276558603491
-0.161683291771,-0.0280548628429
-0.172244389027,-0.0235162094763
-0.17783042394,-0.0290149625935
-0.203379052369,-0.0195012468828
-0.19891521197,-0.0248628428928
-0.194389027431,-0.0401620947631
-0.184850374065,-0.0254613466334
-0.180211970075,-0.0157855361596
-0.160561097257,-0.00108478802993
-0.165910224439,0.00852867830424
-0.151296758105,-0.0118578553616
-0.14180798005,-0.0223067331671
-0.152506234414,-0.0327930174564
-0.143453865337,-0.0132793017456
-0.144713216958,-0.0187281795511
-0.171408977556,-0.0242144638404
-0.178566084788,-0.039650872818
-0.191234413965,-0.0450623441397
-0.189438902743,-0.0404613466334
-0.183179551122,-0.0210224438903
-0.172331670823,-0.00190773067332
-0.15674563591,-0.0081421446384
-0.166109725686,-0.0297630922693
-0.175162094763,-0.0466458852868
-0.163665835411,-0.0586658354115
-0.181483790524,-0.0606733167082
-0.183566084788,-0.0625935162095
-0.189912718204,-0.0492643391521
-0.200773067332,-0.0555610972569
-0.186246882793,-0.0714588528678
-0.16150872818,-0.0719077306733
-0.156670822943,-0.0420448877805
-0.161845386534,-0.0270698254364
-0.147094763092,-0.0422568578554
-0.157369077307,-0.0676309226933
-0.152655860349,-0.0631795511222
-0.157980049875,-0.0637281795511
-0.163216957606,-0.0592269326683
-0.163379052369,-0.054650872818
-0.173453865337,-0.0600374064838
-0.173453865337,-0.07536159601
-0.168391521197,-0.100586034913
-0.148316708229,-0.095710723192
-0.128229426434,-0.0808104738155
-0.11819201995,-0.060897755611
-0.103167082294,-0.0610972568579
-0.123092269327,-0.0813466334165
-0.137992518703,-0.0965960099751
-0.127905236908,-0.111758104738
-0.132793017456,-0.111820448878
-0.132718204489,-0.116882793017
-0.132643391521,-0.121945137157
-0.132556109726,-0.132044887781
-0.122493765586,-0.142132169576
-0.102431421446,-0.117132169576
-0.0973940149626,-0.117044887781
-0.0773690773067,-0.0969201995012
-0.0873940149626,-0.101907730673
-0.0824314214464,-0.106982543641
-0.0724812967581,-0.132094763092
-0.072493765586,-0.147157107232
-0.0675436408978,-0.142132169576
-0.0775561097257,-0.13710723192
-0.0675561097257,-0.14210723192
-0.0825436408978,-0.142157107232
-0.072506234414,-0.152157107232
-0.0774064837905,-0.147132169576
-0.0823566084788,-0.141995012469
-0.0673441396509,-0.116895261845
-0.0723441396509,-0.0918578553616
-0.0624064837905,-0.116945137157
-0.0574812967581,-0.137032418953
-0.0425561097257,-0.157082294264
-0.0426558603491,-0.14710723192
-0.0377306733167,-0.147044887781
-0.0477182044888,-0.121920199501
-0.0427306733167,-0.116832917706
-0.0427057356608,-0.111758104738
-0.0276184538653,-0.101658354115
-0.0175436408978,-0.0765710723192
0.00245635910224,-0.0513591022444
0.0274314214464,-0.0312094763092
0.0273316708229,-0.0261221945137
0.0422194513716,-0.0361221945137
0.0470947630923,-0.0561346633416
0.0420074812968,-0.0510598503741
0.0269201995012,-0.0409102244389
0.0218578553616,-0.03072319202
0.016783042394,-0.00551122194514
0.0116957605985,-0.000336658354115
0.00660847880299,0.00985037406484
0.00152119700748,0.0301122194514
0.00643391521197,0.05536159601
0.0113591022444,0.0605735660848
0.00122194513716,0.0407356608479
0.0110972568579,0.0258603491272
0.00594763092269,0.0159600997506
0.000798004987531,0.0110598503741
-0.00443890274314,0.0312219451372
-0.0146882793017,0.0264463840399
-0.0149376558603,0.0117082294264
-0.0250872817955,0.0120074812968
-0.000199501246883,0.00725685785536
-0.00527431421446,0.027506234414
-0.000374064837905,0.0427930174564
0.00450124688279,0.0480798004988
0.00436408977556,0.0333291770574
-0.00583541147132,0.0184912718204
-0.00104738154613,0.0136034912718
-0.0112842892768,0.0187406483791
-0.0265586034913,0.0239152119701
-0.0168204488778,-0.000872817955112
-0.00703241895262,-0.0056608478803
-0.00224438902743,0.00456359102244
0.0225810473815,0.0298004987531
0.0174438902743,0.05
0.0173067331671,0.0602493765586
0.00719451371571,0.0654862842893
-0.00296758104738,0.035710723192
0.0018578553616,0.025885286783
-0.00335411471322,0.0360349127182
-0.0186408977556,0.0411596009975
-0.0189526184539,0.0363591022444
-0.0392518703242,0.0365211970075
-0.0345511221945,0.0167206982544
-0.0198004987531,0.0119451371571
-0.00997506234414,0.022144638404
-0.00513715710723,0.0423566084788
0.0147506234414,0.047506234414
0.0146882793017,0.042680798005
0.014650872818,0.0227556109726
-0.000361596009975,0.0177306733167
-0.01036159601,0.0326433915212
-0.02036159601,0.032506234414
-0.0253990024938,0.0573940149626
-0.0353990024938,0.0422942643392
-0.0403865336658,0.0222194513716
-0.0303740648379,0.0171820448878
-0.00534912718204,0.0221197007481
-0.0103366583541,0.0570573566085
0.00963840399002,0.0669326683292
0.0146009975062,0.066783042394
-0.000461346633416,0.0415710723192
-0.00561097256858,0.0313341645885
-0.0108354114713,0.0311097256858
-0.0160972568579,0.0358728179551
-0.0263715710723,0.0406733167082
-0.0316458852868,0.0354987531172
-0.0319451371571,0.0254364089776
-0.0322443890274,0.0353366583541
-0.0225685785536,0.0302743142145
-0.0229426433915,0.045187032419
0.00168329177057,0.0600748129676
0.00625935162095,0.0599501246883
0.00579800498753,0.0347880299252
0.0252867830424,0.0245885286783
0.0347630922693,0.0193765586035
0.0342269326683,0.029102244389
0.0287281795511,0.0588154613466
0.018216957606,0.0786284289277
0.0227431421446,0.0934788029925
0.0272568578554,0.108441396509
0.0417955112219,0.113403990025
0.0413216957606,0.123316708229
0.0758728179551,0.123216957606
0.105386533666,0.118117206983
0.104862842893,0.107992518703
0.129314214464,0.082855361596
0.133715710723,0.0576184538653
0.148104738155,0.0623441396509
0.147518703242,0.0669950124688
0.141970074813,0.0716583541147
0.136533665835,0.0464837905237
0.131259351621,0.0313965087282
0.131246882793,0.0263092269327
0.116571072319,0.0261720698254
0.122331670823,0.0559351620948
0.1136159601,0.0706733167082
0.110448877805,0.0603990024938
0.0928802992519,0.0451496259352
0.0808104738155,0.0100623441397
0.0841645885287,-0.00481296758105
0.0727805486284,-0.0144014962594
0.0463466334165,0.016433915212
0.0345012468828,0.0176309226933
0.0220448877805,0.0190773067332
0.00882793017456,0.0305236907731
0.00486284289277,0.0467082294264
-0.0197381546135,0.0675187032419
-0.024825436409,0.0778678304239
-0.0252119700748,0.072855361596
-0.0207980049875,0.0475436408978
-0.036421446384,0.0120448877805
-0.0470199501247,-0.00347880299252
-0.0575187032419,-0.0188902743142
-0.0629301745636,0.00584788029925
-0.0783042394015,0.00576059850374
-0.0587157107232,0.00572319201995
-0.0691895261845,0.000635910224439
-0.0547256857855,0.0154364089776
-0.0503241895262,0.0201620947631
-0.0559725685786,0.0348753117207
-0.0517082294264,0.0545760598504
-0.0624688279302,0.0592144638404
-0.068391521197,0.0238029925187
-0.0843266832918,-0.00659600997506
-0.0902867830424,-0.0220074812968
-0.111234413965,-0.0073566084788
-0.117206982544,-0.0176683291771
-0.118142144638,0.00706982543641
-0.0990897755611,-0.00817955112219
-0.0499875311721,0.0015710723192
0.0291396508728,-0.0086783042394
0.13825436409,-0.00391521197007
0.267394014963,-0.00913965087282
0.456521197007,0.00561097256858
0.640548628429,-0.0246758104738
0.844563591022,-0.0249875311721
1.07355361596,-0.0253366583541
1.28261845387,0.0543765586035
1.45174563591,0.174164588529
1.55096009975,0.303965087282
1.53533665835,0.433827930175
1.40476309227,0.523715710723
1.19920199501,0.58855361596
0.923715710723,0.603316708229
0.618229426434,0.563029925187
0.3427680798,0.477680798005
0.122319201995,0.332394014963
-0.0331670822943,0.172144638404
-0.113603491272,0.0168827930175
-0.15397755611,-0.0983665835411
-0.149314214464,-0.138541147132
-0.114600997506,-0.108653366584
-0.0948379052369,-0.0587655860349
-0.0900623441397,0.0010349127182
-0.0752618453865,0.0208229426434
-0.0904613466334,0.0105860349127
-0.11572319202,0.000311720698254
-0.125997506234,4.98753117207e-05
-0.156296758105,-0.00521197007481
-0.161658354115,-0.0154488778055
-0.166982543641,-0.0307356608479
-0.167256857855,-0.0309850374065
-0.157443890274,-0.0361596009975
-0.157581047382,-0.0112842892768
-0.167643391521,0.00862842892768
-0.177743142145,0.00851620947631
-0.167930174564,-0.00668329177057
-0.168204488778,-0.0170573566085
-0.168678304239,-0.0224688279302
-0.169488778055,-0.0178802992519
-0.170748129676,-0.0182294264339
-0.167581047382,-0.0235286783042
-0.180024937656,-0.0438279301746
-0.173079800499,-0.054102244389
-0.181733167082,-0.0645885286783
-0.180810473815,-0.0402618453865
-0.185124688279,-0.0262219451372
-0.184351620948,-0.017506234414
-0.183117206983,-0.0241396508728
-0.176197007481,-0.0460473815461
-0.183453865337,-0.0580049875312
-0.184900249377,-0.0447381546135
-0.200698254364,-0.0361346633416
-0.201047381546,-0.0470822942643
-0.216097256858,-0.0576309226933
-0.20102244389,-0.077855361596
-0.190997506234,-0.0779551122195
-0.195985037406,-0.0729426433915
-0.171097256858,-0.0379301745636
-0.176221945137,-0.0380922693267
-0.166321695761,-0.0484413965087
-0.156296758105,-0.0489526184539
-0.166221945137,-0.069463840399
-0.176047381546,-0.0999501246883
-0.170860349127,-0.0802493765586
-0.180673316708,-0.0755610972569
-0.190473815461,-0.0858603491272
-0.195261845387,-0.0911346633416
-0.175012468828,-0.111309226933
-0.164675810474,-0.1213840399
-0.15427680798,-0.101359102244
-0.143865336658,-0.0812967581047
-0.133403990025,-0.0763341645885
-0.137942643392,-0.0864713216958
-0.12746882793,-0.106645885287
-0.137057356608,-0.121783042394
-0.126683291771,-0.136882793017
-0.1263840399,-0.126882793017
-0.121097256858,-0.121845386534
-0.13078553616,-0.131795511222
-0.130498753117,-0.126658354115
-0.130199501247,-0.131421446384
-0.124862842893,-0.136172069825
-0.129563591022,-0.120997506234
-0.124239401496,-0.110922693267
-0.118890274314,-0.110897755611
-0.0935910224439,-0.110922693267
-0.0833042394015,-0.145847880299
-0.0730922693267,-0.165760598504
-0.0878927680798,-0.160685785536
-0.0977556109726,-0.150623441397
-0.107556109726,-0.135573566085
-0.112356608479,-0.145473815461
-0.107132169576,-0.160261845387
-0.101882793017,-0.169987531172
-0.086608478803,-0.134788029925
-0.0863341645885,-0.109613466334
-0.0710349127182,-0.0995137157107
-0.0657605985037,-0.109426433915
-0.0605860349127,-0.129301745636
-0.0754114713217,-0.13921446384
-0.0752618453865,-0.134152119701
-0.0700997506234,-0.129077306733
-0.0798877805486,-0.11391521197
-0.0746882793017,-0.113703241895
-0.0695012468828,-0.128391521197
-0.0493142144638,-0.138004987531
-0.0391396508728,-0.122718204489
-0.0189650872818,-0.102493765586
-0.00879052369077,-0.0672817955112
0.00134663341646,-0.0620698254364
0.00645885286783,-0.0568329177057
0.0114962593516,-0.0765710723192
0.0164713216958,-0.0813216957606
0.0214837905237,-0.071072319202
0.0215211970075,-0.0557980049875
0.0215710723192,-0.0354862842893
0.00170822942643,-0.0351371571072
0.0068578553616,-0.0197506234414
0.00200748129676,-0.00940149625935
0.0071072319202,0.0109351620948
0.0121695760599,0.0312593516209
0.00718204488778,0.0315710723192
-0.00283042394015,0.031970074813
-0.0128802992519,0.0223067331671
-0.0179800498753,-0.00238154613466
-0.028042394015,0.00291770573566
-0.0280548628429,0.00820448877805
-0.0330548628429,0.028578553616
-0.0330174563591,0.0340399002494
-0.0329675810474,0.0345635910224
-0.0229551122195,0.0250124688279
-0.0179301745636,0.0104114713217
-0.0179177057357,0.0207855361596
-0.0178678304239,0.0361221945137
-0.0328802992519,0.0414837905237
-0.0279301745636,0.0168453865337
-0.0430174563591,0.00715710723192
-0.0331296758105,-0.012493765586
-0.0282793017456,0.00280548628429
-0.0234164588529,0.0181546134663
-0.0185411471322,0.0285910224439
-0.0186533665835,0.0340399002494
-0.0187905236908,0.0344139650873
-0.0138778054863,0.0296882793017
-0.00394014962594,0.0448877805486
-0.00897755610973,0.0550124688279
-0.00405236907731,0.0401246882793
-0.0141645885287,0.0302618453865
-0.02427680798,-0.00456359102244
-0.0343640897756,-0.0143516209476
-0.0394139650873,-0.00418952618454
-0.034463840399,0.00600997506234
-0.0293890274314,0.0112593516209
-0.0192269326683,0.0165211970075
-0.0190399002494,0.0117456359102
-0.00881546134663,0.0269077306733
0.0014463840399,0.0319326683292
-0.00322942643392,0.061970074813
0.00706982543641,0.0720199501247
-0.0176433915212,0.0421072319202
-0.0173940149626,0.0271197007481
-0.032144638404,0.0121197007481
-0.0368703241895,0.0120822942643
-0.031608478803,0.0320199501247
-0.0362967581047,0.0320448877805
-0.0259975062344,0.0321695760599
-0.02572319202,0.0372817955112
-0.010536159601,0.0423690773067
0.0045885286783,0.047319201995
-0.00529925187032,0.0521695760599
-0.0102244389027,0.0320199501247
-0.0102493765586,0.026970074813
-0.0153241895262,0.0119201995012
-0.0204364089776,0.00689526184539
-0.0355735660848,0.0218703241895
-0.040710723192,0.0418827930175
-0.0408728179551,0.0319451371571
-0.0410349127182,0.0220698254364
-0.0211970074813,0.0322194513716
-0.0163591022444,0.0472942643392
-0.00654613466334,0.0472693266833
-0.0217581047382,0.0521695760599
-0.0220074812968,0.0569950124688
-0.022319201995,0.0369077306733
-0.027680798005,0.0468329177057
-0.0180049875312,0.0467581047382
-0.00836658354115,0.0516334164589
-0.00364089775561,0.0465461346633
-0.00385286783042,0.0514713216958
0.0209226932668,0.0614713216958
0.0256857855362,0.0815710723192
0.0654488778055,0.111658354115
0.075174563591,0.101645885287
0.0898753117207,0.0914962593516
0.0945261845387,0.0813216957606
0.109102244389,0.0761845386534
0.113640897756,0.0710473815461
0.113216957606,0.0759975062344
0.107855361596,0.055897755611
0.107618453865,0.0458229426434
0.102605985037,0.030710723192
0.102880299252,0.0456359102244
0.108478802993,0.0505610972569
0.124563591022,0.0605735660848
0.126134663342,0.0554488778055
0.12819201995,0.0652867830424
0.105810473815,0.0451122194514
0.0939401496259,0.0351246882793
0.0774688279302,0.0504738154613
0.0362344139651,0.0211471321696
0.0149875311721,-0.00788029925187
0.00840399002494,-0.00170822942643
-0.00365336658354,0.01963840399
-0.016421446384,0.0410349127182
-0.0249501246883,0.0673940149626
-0.0341396508728,0.058566084788
-0.0288902743142,0.0393017456359
-0.0340149625935,0.0296134663342
-0.0343391521197,0.0245137157107
-0.0447880299252,0.0241396508728
-0.0702743142145,0.0136408977556
-0.07572319202,-0.00178304239401
-0.0911471321696,0.0078927680798
-0.096608478803,0.017680798005
-0.102044887781,0.0275187032419
-0.0825436408978,0.0473441396509
-0.0781047381546,0.0471571072319
-0.0786783042394,0.041970074813
-0.0543266832918,0.0167206982544
-0.0650124688279,0.0113591022444
-0.0657730673317,0.000960099750623
-0.0815710723192,-0.0144139650873
-0.0923815461347,-0.0147506234414
-0.10825436409,-0.0300249376559
-0.114152119701,-0.0402369077307
-0.0950748129676,-0.0204613466334
-0.0509102244389,0.0343391521197
0.0232668329177,0.0491645885287
0.157456359102,0.0440274314214
0.336658354115,0.0139401496259
0.565860349127,-0.0161845386534
0.820099750623,-0.0263715710723
1.08432668329,-0.0115960099751
1.3286159601,0.0731670822943
1.51791770574,0.167930174564
1.60225685786,0.277793017456
1.57164588529,0.402680798005
1.39612219451,0.517593516209
1.12069825436,0.612431421446
0.795311720698,0.637281795511
0.45993765586,0.552094763092
0.209588528678,0.411932668329
0.0142144638404,0.231832917706
-0.0961471321696,0.0616832917706
-0.15150872818,-0.0635411471322
-0.136857855362,-0.108790523691
-0.117194513716,-0.128990024938
-0.0725311720698,-0.104177057357
-0.0577805486284,-0.0592643391521
-0.063029925187,-0.00437655860349
-0.0982418952618,0.0405236907731
-0.118403990025,0.0504613466334
-0.153603491272,0.0403865336658
-0.168827930175,-0.00980049875312
-0.164027431421,4.98753117208e-05
-0.169289276808,-0.000162094763092
-0.159551122195,-0.000386533665835
-0.164850374065,-0.0155610972569
-0.180087281796,-0.0307481296758
-0.180199501247,-0.0509600997506
-0.185274314214,-0.0611221945137
-0.190386533666,-0.0312718204489
-0.185598503741,-0.0114089775561
-0.196122194514,0.00845386533666
-0.187057356608,0.00325436408978
-0.17855361596,-0.00194513715711
-0.15566084788,-0.017144638404
-0.158453865337,-0.0273940149626
-0.176945137157,-0.0227930174564
-0.17602244389,-0.0384788029925
-0.180399002494,-0.0545012468828
-0.194663341646,-0.0559102244389
-0.193453865337,-0.0476184538653
-0.196521197007,-0.0244264339152
-0.213690773067,-0.0161221945137
-0.200024937656,-0.00254364089776
-0.200586034913,-0.0235910224439
-0.180685785536,-0.0343142144638
-0.175548628429,-0.0446882793017
-0.160399002494,-0.0397755610973
-0.160349127182,-0.0397755610973
-0.165411471322,-0.0398379052369
-0.170586034913,-0.0700623441397
-0.175748129676,-0.0904364089776
-0.185860349127,-0.075897755611
-0.195860349127,-0.0812094763092
-0.200798004988,-0.056421446384
-0.200623441397,-0.0465336658354
-0.175374064838,-0.0566832917706
-0.165087281796,-0.0668703241895
-0.144812967581,-0.0620822942643
-0.144600997506,-0.0573067331671
-0.139401496259,-0.0675436408978
-0.139264339152,-0.0678054862843
-0.134114713217,-0.0980798004988
-0.143952618454,-0.123391521197
-0.148690773067,-0.113690773067
-0.143366583541,-0.0988528678304
-0.148004987531,-0.0840024937656
-0.147605985037,-0.0790773067332
-0.137182044888,-0.0941770573566
-0.126733167082,-0.104264339152
-0.0963216957606,-0.119389027431
-0.0959102244389,-0.124526184539
-0.0955236907731,-0.12463840399
-0.0951371571072,-0.119738154613
-0.109775561097,-0.129763092269
-0.114438902743,-0.149725685786
-0.114114713217,-0.154650872818
-0.108815461347,-0.154501246883
-0.103528678304,-0.134314214464
-0.0931920199501,-0.129077306733
-0.0878678304239,-0.138890274314
-0.0825311720698,-0.128665835411
-0.0672069825436,-0.138441396509
-0.0719077306733,-0.138304239401
-0.0666583541147,-0.128241895262
-0.076433915212,-0.128179551122
-0.071246882793,-0.153079800499
-0.0710473815461,-0.177917705736
-0.0708728179551,-0.172705735661
-0.0806608478803,-0.16246882793
-0.0804488778055,-0.152219451372
-0.100199501247,-0.132019950125
-0.0849376558603,-0.136783042394
-0.0746882793017,-0.141521197007
-0.0594513715711,-0.131271820449
-0.0492643391521,-0.136047381546
-0.0240648379052,-0.120910224439
-0.0289152119701,-0.125760598504
-0.00879052369077,-0.145548628429
-0.00866583541147,-0.150249376559
0.00142144638404,-0.144875311721
0.00152119700748,-0.114488778055
0.00163341645885,-0.0891645885287
-0.00819201995012,-0.0487780548628
0.00197007481297,-0.0133291770574
0.00715710723192,-0.00288029925187
0.012319201995,-0.0024812967581
0.00744389027431,-0.00218204488778
0.00754364089776,0.023029925187
0.00763092269327,0.0182668329177
-0.00731920199501,-0.00143391521197
-0.0122817955112,-0.0110598503741
-0.0222194513716,-0.0056608478803
-0.0121571072319,-0.00529925187032
-0.0220947630923,0.0251246882793
-0.0319950124688,0.0255735660848
-0.0218952618454,0.0261097256858
-0.0217581047382,0.0167082294264
-0.0116583541147,0.0221820448878
-0.0165710723192,0.0125436408978
-0.0265211970075,0.0228428927681
-0.0365211970075,0.0331421446384
-0.0514962593516,0.0285286783042
-0.0565336658354,0.00392768079801
-0.0515586034913,-0.000660847880299
-0.0365710723192,-0.00527431421446
-0.0265461346633,0.0151371571072
-0.0214713216958,0.0405610972569
-0.0214588528678,0.0310099750623
-0.0114588528678,0.0214089775561
-0.00650872817955,0.0217705735661
-0.00662094763092,0.0120074812968
-0.0117082294264,0.0221695760599
-0.0168952618454,0.0223566084788
-0.0321197007481,0.0225685785536
-0.0373566084788,0.00778054862843
-0.0376059850374,-0.00705735660848
-0.0328054862843,-0.00190773067332
-0.0379925187032,0.00324189526185
-0.0381296758105,0.0183790523691
-0.0332917705736,0.0335286783042
-0.0134413965087,0.0237032418953
-0.00857855361596,0.0188029925187
-0.00372817955112,0.0188653366584
0.00115960099751,0.0338778054863
-0.018927680798,0.0339027431421
-0.0390149625935,0.0339401496259
-0.0390773067332,0.0190149625935
-0.029114713217,-0.000897755610973
-0.0390773067332,0.00923940149626
-0.0289152119701,0.0144264339152
-0.0337406483791,0.0396134663342
-0.0185286783042,0.034812967581
-0.00827930174564,0.0350249376559
0.0019825436409,0.0252369077307
-0.0127306733167,0.0153990024938
-0.017493765586,0.0205486284289
-0.0172568578554,0.0205985037406
-0.0270074812968,0.0256608478803
-0.0317705735661,0.0157481296758
-0.0315087281796,0.0108478802993
-0.0362344139651,-0.00902743142145
-0.045885286783,0.0161097256858
-0.0355112219451,0.0312718204489
-0.030174563591,0.0364962593516
-0.0249127182045,0.0416583541147
-0.0147007481297,0.0267705735661
-0.00956359102244,0.0268827930175
-0.0195511221945,0.0368952618454
-0.0146009975062,0.0468578553616
-0.0297132169576,0.0418329177057
-0.0198628428928,0.0368703241895
-0.0200249376559,0.0119201995012
-0.0301995012469,0.00204488778055
-0.0253865336658,0.0321695760599
-0.0305610972569,0.0422817955112
-0.03072319202,0.0523815461347
-0.020885286783,0.0474688279302
-0.00109725685786,0.0575311720698
0.0186284289277,0.0575436408978
0.0283541147132,0.067493765586
0.0479925187032,0.0825187032419
0.0525810473815,0.0825685785536
0.0621820448878,0.0776309226933
0.0618079800499,0.0726932668329
0.0564837905237,0.0727431421446
0.0561970074813,0.0928054862843
0.0659975062344,0.127880299252
0.0907605985037,0.127930174564
0.105511221945,0.117967581047
0.120187032419,0.0979052369077
0.144850374065,0.0977805486284
0.144463840399,0.0926309226933
0.144077306733,0.0974438902743
0.118703241895,0.0723441396509
0.113441396509,0.0523940149626
0.108354114713,0.0324189526185
0.1036159601,0.0174438902743
0.104351620948,0.0324438902743
0.0956608478803,0.0524189526185
0.0926309226933,0.0473815461347
0.0802992518703,0.0423441396509
0.0736034912718,0.032493765586
0.0673940149626,0.017855361596
0.0513715710723,0.0235162094763
0.0252119700748,0.0245137157107
-0.0064463840399,0.0507980049875
-0.00881546134663,0.0272817955112
-0.0170199501247,0.0337780548628
-0.0260473815461,0.0400374064838
-0.030710723192,0.0259725685786
-0.0358478802993,0.036433915212
-0.0512842892768,0.0565087281796
-0.0418703241895,0.046246882793
-0.0374314214464,0.0258354114713
-0.0429426433915,0.0253366583541
-0.0534164588529,0.0199251870324
-0.0588778054863,0.029650872818
-0.0644264339152,0.0144887780549
-0.0751496259352,-0.000511221945137
-0.0709725685786,-0.0155112219451
-0.0718703241895,-0.000511221945137
-0.0777805486284,0.004463840399
-0.0636284289277,0.0345137157107
-0.0744513715711,0.0295760598504
-0.0652369077307,0.00461346633416
-0.0710099750623,-0.0104114713217
-0.111820448878,-0.0104862842893
-0.117618453865,-0.0106234413965
-0.0934164588529,0.00426433915212
-0.0441770573566,0.00422693266833
0.0750748129676,-0.00574812967581
0.249351620948,-0.00072319201995
0.463728179551,-0.0156359102244
0.718179551122,-0.0305236907731
0.9927680798,-0.000423940149626
1.27734413965,0.0646134663342
1.50194513716,0.169625935162
1.62159600998,0.309588528678
1.5762967581,0.459488778055
1.39097256858,0.574413965087
1.09566084788,0.629401496259
0.740336658354,0.594438902743
0.409987531172,0.484476309227
0.124688279302,0.334563591022
-0.0505860349127,0.169613466334
-0.135798004988,0.00967581047382
-0.155985037406,-0.100261845387
-0.12614713217,-0.125187032419
-0.0913092269327,-0.085174563591
-0.0514962593516,-0.0301995012469
-0.0516708229426,0.0147007481297
-0.0668329177057,0.0395760598504
-0.0970573566085,0.0145261845387
-0.122319201995,-0.000548628428928
-0.152568578554,-0.0305486284289
-0.17783042394,-0.0255486284289
-0.188029925187,-0.0305236907731
-0.19819201995,-0.0304364089776
-0.173391521197,-0.02036159601
-0.163753117207,-0.0102992518703
-0.149351620948,0.0147007481297
-0.150349127182,0.0196758104738
-0.151795511222,0.0196009975062
-0.173877805486,0.00451371571072
-0.191633416459,-0.0355610972569
-0.19,-0.0206982543641
-0.19891521197,-0.0160598503741
-0.20319201995,-0.00172069825436
-0.212493765586,-0.00273067331671
-0.19650872818,-0.00903990024938
-0.194950124688,-0.0105985037406
-0.182668329177,-0.0122817955112
-0.184625935162,-0.00395261845387
-0.175847880299,-0.0154364089776
-0.186583541147,-0.0415710723192
-0.176920199501,-0.0422942643392
-0.172032418953,-0.0626309226933
-0.162044887781,-0.057680798005
-0.177019950125,-0.0575561097257
-0.177007481297,-0.037493765586
-0.192057356608,-0.0525311720698
-0.197132169576,-0.0626309226933
-0.192157107232,-0.0528054862843
-0.182144638404,-0.0179925187032
-0.172082294264,-0.0131920199501
-0.161970074813,-0.00844139650873
-0.16680798005,-0.0287157107232
-0.156608478803,-0.0490773067332
-0.1613840399,-0.0693640897756
-0.156209476309,-0.0896134663342
-0.171047381546,-0.0598753117207
-0.175960099751,-0.0600872817955
-0.185835411471,-0.0653241895262
-0.175685785536,-0.0855112219451
-0.170461346633,-0.0856359102244
-0.165211970075,-0.0707481296758
-0.139862842893,-0.0608229426434
-0.124551122195,-0.0709600997506
-0.119226932668,-0.0961720698254
-0.103940149626,-0.121408977556
-0.108603491272,-0.126620947631
-0.108316708229,-0.106770573566
-0.123004987531,-0.116857855362
-0.122680798005,-0.131857855362
-0.127356608479,-0.146783042394
-0.126970074813,-0.136633416459
-0.121596009975,-0.131408977556
-0.121221945137,-0.106197007481
-0.120847880299,-0.105935162095
-0.100473815461,-0.120735660848
-0.0901620947631,-0.145623441397
-0.0898877805486,-0.150511221945
-0.089650872818,-0.14036159601
-0.0794264339152,-0.150199501247
-0.0842394014963,-0.154950124688
-0.0890897755611,-0.159713216958
-0.093927680798,-0.174463840399
-0.103728179551,-0.154201995012
-0.0984663341646,-0.123865336658
-0.0982044887781,-0.113578553616
-0.0829800498753,-0.113279301746
-0.0877680798005,-0.127967581047
-0.0676309226933,-0.132655860349
-0.0625187032419,-0.137394014963
-0.0674064837905,-0.122132169576
-0.067319201995,-0.126895261845
-0.0722069825436,-0.126620947631
-0.0570448877805,-0.131309226933
-0.0568703241895,-0.131009975062
-0.0366832917706,-0.120673316708
-0.0164713216958,-0.0852867830424
-0.031246882793,-0.0599376558603
-0.00604738154613,-0.0545885286783
0.00415211970075,-0.0442394014963
0.00928927680798,-0.0538653366584
0.0144014962594,-0.0434912718204
0.014463840399,-0.0281546134663
0.0145012468828,-0.0128428927681
0.00450124688279,-0.0074812967581
-0.000498753117207,-0.00711970074813
-0.00548628428928,-0.0116832917706
-0.0104114713217,-0.0011970074813
-0.0103366583541,0.0243142144638
-0.0151995012469,0.044812967581
-0.0150623441397,0.0452992518703
-0.00996259351621,0.0357481296758
-0.0199376558603,0.0262219451372
-0.00493765586035,0.0317082294264
-0.0299750623441,0.0321695760599
-0.0400498753117,0.0426309226933
-0.0351246882793,0.0330548628429
-0.0352119700748,0.0185037406484
-0.0452369077307,0.00397755610973
-0.0351995012469,-0.000523690773067
-0.0401246882793,0.0149875311721
-0.0200748129676,0.0254738154613
-0.0250249376559,0.0459476309227
-0.0299875311721,0.0313965087282
-0.0299625935162,0.00687032418953
-0.0399875311721,0.0173316708229
-0.0400374064838,0.0127306733167
-0.055174563591,0.018042394015
-0.06536159601,0.00339152119701
-0.0505486284289,-0.0112219451372
-0.0457356608479,-0.00582294264339
-0.0409476309227,0.00462593516209
-0.0311346633416,0.0200249376559
-0.0263092269327,0.030349127182
-0.0265087281796,0.0206234413965
-0.0116708229426,0.0208728179551
-0.0118453865337,0.0160598503741
-0.0220074812968,0.0312718204489
-0.0271945137157,0.0264089775561
-0.0324189526185,0.0164588528678
-0.0326309226933,0.00155860349127
-0.0428428927681,-0.00334164588529
-0.043042394015,-0.00321695760599
-0.0331920199501,0.00694513715711
-0.0332793017456,0.0171820448878
-0.0382917705736,0.0273815461347
-0.0182793017456,0.00759351620948
-0.00321695760599,0.00781795511222
-0.0131296758105,0.0130049875312
-0.00300498753117,0.0331920199501
-0.0179177057357,0.0383790523691
-0.032855361596,0.028566084788
-0.0428179551122,-0.00117206982544
-0.0377306733167,0.00415211970075
-0.0325561097257,-0.000523690773067
-0.0173316708229,0.0247880299252
-0.0220698254364,0.0500997506234
-0.0167456359102,0.0454738154613
-0.0214463840399,0.0507855361596
-0.00613466334165,0.0360598503741
-0.00587281795511,0.0312219451372
-0.000623441396509,0.0563341645885
-0.00538653366584,0.0514089775561
-0.015174563591,0.0314837905237
-0.0149501246883,0.0115710723192
-0.0247755610973,0.00670822942643
-0.03963840399,0.0218079800499
-0.0494887780549,0.0319077306733
-0.0543516209476,0.0420199501247
-0.0442019950125,0.032144638404
-0.019102244389,0.0222693266833
0.00587281795511,0.0223815461347
0.0157605985037,0.0375311720698
0.0256109725686,0.0575810473815
0.0204114713217,0.0676558603491
0.025174563591,0.0577805486284
0.0199127182045,0.067855361596
0.02963840399,0.0529551122195
0.0343266832918,0.0631047381546
0.0390897755611,0.0781920199501
0.0388778054863,0.0932793017456
0.0686658354115,0.0834164588529
0.0784289276808,0.0735536159601
0.108154613466,0.0836658354115
0.142905236908,0.0636783042394
0.162630922693,0.0736284289277
0.157344139651,0.0635286783042
0.147057356608,0.0235162094763
0.12674563591,0.00354114713217
0.11144638404,-0.00137157107232
0.106109725686,0.00869077306733
0.0958229426434,0.0187032418953
0.095536159601,0.0236783042394
0.090174563591,0.0287032418953
0.084812967581,0.00874064837905
0.0644763092269,0.00879052369077
0.06427680798,0.0038029925187
0.0444014962594,0.023753117207
0.0149501246883,-0.00635910224439
-0.0039650872818,-0.0214837905237
-0.0322319201995,-0.0315960099751
-0.0248503740648,-0.0166334164589
-0.046783042394,-0.00154613466334
-0.0581546134663,0.00382793017456
-0.0742019950125,0.0145635910224
-0.0702992518703,0.00571072319202
-0.0668453865337,-0.00784289276808
-0.0591396508728,-0.00125935162095
-0.0623690773067,0.010174563591
-0.0664588528678,0.00629675810474
-0.0762593516209,0.00204488778055
-0.0815586034913,-0.0126309226933
-0.0870573566085,-0.0227182044888
-0.0826433915212,-0.0230673316708
-0.0831670822943,0.00149625935162
-0.0785910224439,0.0161596009975
-0.088927680798,0.0159600997506
-0.0993017456359,0.00587281795511
-0.0847007481297,-0.00913965087282
-0.0801995012469,-0.00420199501247
-0.0907855361596,-0.00932668329177
-0.0865087281796,0.000423940149626
-0.0873566084788,-0.0198004987531
-0.0933042394015,-0.0550374064838
-0.0593391521197,-0.0452244389027
0.00466334164589,-0.0353366583541
0.103740648379,-0.0203740648379
0.262880299252,-0.01036159601
0.44710723192,-0.02036159601
0.691334164589,-0.04036159601
0.955561097257,-0.0353740648379
1.20471321696,0.00452618453865
1.41886533666,0.109463840399
1.56301745636,0.234426433915
1.58216957606,0.359413965087
1.47635910224,0.469426433915
1.27563591022,0.554463840399
0.985,0.599513715711
0.679451371571,0.594563591022
0.384002493766,0.524588528678
0.173640897756,0.37457605985
0.00832917705736,0.189501246883
-0.0819326683292,0.0294887780549
-0.117206982544,-0.0855610972569
-0.12746882793,-0.135586034913
-0.112780548628,-0.105685785536
-0.0830673316708,-0.0757730673317
-0.068391521197,-0.0409226932668
-0.0737157107232,-0.021072319202
-0.0940149625935,-0.0161845386534
-0.10927680798,-0.00118453865337
-0.139513715711,0.0188653366584
-0.154675810474,0.00394014962594
-0.169850374065,0.0139650872818
-0.180012468828,-0.0110099750623
-0.170187032419,-0.0160224438903
-0.165374064838,-0.00104738154613
-0.155598503741,-0.00108478802993
-0.155835411471,0.00381546134663
-0.15608478803,-0.0213466334165
-0.171296758105,-0.0364962593516
-0.171483790524,-0.0465710723192
-0.186658354115,-0.0465336658354
-0.176795511222,-0.0264962593516
-0.161982543641,-0.0164713216958
-0.147269326683,-0.0115461346633
-0.157693266833,-0.0166957605985
-0.138441396509,-0.0118329177057
-0.149563591022,-0.0118952618454
-0.166221945137,-0.00695760598504
-0.158466334165,-0.00205735660848
-0.181321695761,-0.0223067331671
-0.174750623441,-0.052680798005
-0.183678304239,-0.0482294264339
-0.187942643392,-0.0439650872818
-0.192281795511,-0.0249376558603
-0.186371571072,-0.0112593516209
-0.179950124688,-0.0228927680798
-0.177855361596,-0.0347007481297
-0.164987531172,-0.0415087281796
-0.161396508728,-0.0481670822943
-0.1572319202,-0.0445012468828
-0.152618453865,-0.0504613466334
-0.167743142145,-0.066072319202
-0.182755610973,-0.0913216957606
-0.187693266833,-0.0813092269327
-0.182630922693,-0.0761845386534
-0.187556109726,-0.071072319202
-0.172568578554,-0.0760972568579
-0.167556109726,-0.0812344139651
-0.162493765586,-0.0864962593516
-0.137443890274,-0.0817705735661
-0.137331670823,-0.0770199501247
-0.152206982544,-0.0672319201995
-0.157032418953,-0.0723940149626
-0.151832917706,-0.0975685785536
-0.156558603491,-0.117755610973
-0.161209476309,-0.11289276808
-0.155872817955,-0.102955112219
-0.160473815461,-0.102967581047
-0.150012468828,-0.112930174564
-0.144538653367,-0.127905236908
-0.124052369077,-0.127855361596
-0.108578553616,-0.11283042394
-0.0981047381546,-0.127793017456
-0.097680798005,-0.112718204489
-0.0972817955112,-0.127605985037
-0.101907730673,-0.157493765586
-0.0965710723192,-0.172344139651
-0.116234413965,-0.16716957606
-0.110885286783,-0.146957605985
-0.115523690773,-0.131720698254
-0.105137157107,-0.141496259352
-0.0947506234414,-0.161246882793
-0.069289276808,-0.170960099751
-0.0639027431421,-0.160685785536
-0.0536159600998,-0.14042394015
-0.0533167082294,-0.125236907731
-0.063042394015,-0.14006234414
-0.0778179551122,-0.149925187032
-0.0825810473815,-0.164713216958
-0.0873316708229,-0.164526184539
-0.0920199501247,-0.154326683292
-0.0866832917706,-0.144077306733
-0.0913466334165,-0.148827930175
-0.0760224438903,-0.153591022444
-0.0657356608479,-0.133291770574
-0.0354114713217,-0.118017456359
-0.0251496259352,-0.107780548628
-0.0149127182045,-0.107643391521
-0.00968827930175,-0.107518703242
0.00554862842893,-0.122381546135
0.00577306733167,-0.11716957606
0.00598503740648,-0.0869077306733
0.00622194513716,-0.0566209476309
-0.0035536159601,-0.0363715710723
-0.0132917705736,-0.0161221945137
-0.00799251870324,-0.030885286783
0.00230673316708,-0.0255486284289
0.00754364089776,-0.000187032418953
0.00778054862843,0.0101246882793
0.00296758104738,0.02036159601
-0.0018578553616,0.0205486284289
-0.0117206982544,0.00072319201995
-0.0165586034913,-0.0190024937656
-0.0263840399002,-0.0036783042394
-0.0262593516209,0.00172069825436
-0.0260847880299,0.0120698254364
-0.0308728179551,0.0274189526185
-0.0356982543641,0.0227805486284
-0.0204862842893,0.018216957606
-0.0153366583541,0.0187157107232
-0.00521197007481,0.00920199501247
-0.0151122194514,0.0195885286783
-0.0250124688279,0.0199002493766
-0.0299127182045,0.0151995012469
-0.0297630922693,-0.00441396508728
-0.02963840399,-0.0289401496259
-0.0194887780549,-0.00840399002494
-0.0243765586035,0.0121571072319
-0.0292518703242,0.0326558603491
-0.029102244389,0.0331047381546
-0.0289401496259,0.0286159600998
-0.0237780548628,0.014102244389
-0.0286658354115,0.0245760598504
-0.018578553616,0.0250124688279
-0.00852867830424,0.03536159601
-0.0285286783042,0.0307481296758
-0.033566084788,0.0161596009975
-0.048566084788,-0.00340399002494
-0.048566084788,0.00206982543641
-0.0284912718204,0.00754364089776
-0.0283541147132,0.0179800498753
-0.018216957606,0.0334289276808
-0.00807980049875,0.0289027431421
-0.00300498753117,0.0143765586035
0.00206982543641,0.019812967581
0.00208229426434,0.0202493765586
0.0021072319202,0.0205735660848
-0.017855361596,0.0358354114713
-0.0228179551122,0.0161221945137
-0.0277431421446,-0.00354114713217
-0.0276558603491,-0.00822942643392
-0.0175187032419,0.0120947630923
-0.032319201995,0.0373815461347
-0.0319950124688,0.0475810473815
-0.0216209476309,0.0528054862843
-0.0212219451372,0.0329925187032
-0.015885286783,0.0231047381546
-0.00559850374065,0.0281047381546
-0.000349127182045,0.0330049875312
-0.0101371571072,0.0279177057357
-0.0149376558603,0.027855361596
-0.0247007481297,0.00785536159601
-0.0294887780549,0.00286783042394
-0.01427680798,0.0128678304239
-0.0190523690773,0.0278179551122
-0.0288279301746,0.0427805486284
-0.0236533665835,0.0727805486284
-0.0235536159601,0.0627182044888
-0.0285162094763,0.0426433915212
-0.0135910224439,0.042506234414
-0.00365336658354,0.0573566084788
-0.00375311720698,0.0472069825436
-0.0138778054863,0.0421072319202
-0.0390897755611,0.0270698254364
-0.0443142144638,0.0220698254364
-0.0395137157107,0.0220573566085
-0.0197007481297,0.0470698254364
-0.00485037406484,0.0620947630923
-0.00498753117207,0.0620947630923
0.0198379052369,0.0670947630923
0.0146882793017,0.0720573566085
0.029463840399,0.0669451371571
0.0342269326683,0.076783042394
0.0289401496259,0.0766583541147
0.0336783042394,0.0765835411471
0.0483665835411,0.0765461346633
0.043029925187,0.0715087281796
0.0527057356608,0.0664588528678
0.0624438902743,0.0763715710723
0.0872069825436,0.0962718204489
0.112019950125,0.0911970074813
0.141832917706,0.0910972568579
0.166608478803,0.0709226932668
0.176433915212,0.05072319202
0.156408977556,0.0305112219451
0.146608478803,0.0353366583541
0.112206982544,0.0452369077307
0.11325436409,0.0451122194514
0.0949127182045,0.035
0.112244389027,0.0298877805486
0.120187032419,0.0298379052369
0.118690773067,0.0250374064838
0.122618453865,0.0305735660848
0.106620947631,0.021433915212
0.0953740648379,0.00753117206983
0.068566084788,0.00382793017456
0.0510349127182,0.00522443890274
0.0127306733167,0.0266209476309
-0.0113591022444,0.0328678304239
-0.0409476309227,0.0337655860349
-0.0509725685786,0.00920199501247
-0.0412219451372,0.00425187032419
-0.0365461346633,-0.00100997506234
-0.0318453865337,0.0286284289277
-0.0420947630923,0.0433541147132
-0.0422568578554,0.0531546134663
-0.0473690773067,0.0430049875312
-0.052506234414,0.037855361596
-0.0576932668329,0.0276683291771
-0.0579800498753,0.012506234414
-0.0783790523691,0.00745635910224
-0.0788653366584,0.00739401496259
-0.0744264339152,-0.0126558603491
-0.075,-0.0177930174564
-0.0655236907731,-0.0329551122195
-0.0660099750623,0.00190773067332
-0.066433915212,0.0267456359102
-0.0719201995012,0.0465960099751
-0.0774189526185,0.0213591022444
-0.0830049875312,-0.00897755610973
-0.0836408977556,-0.0393516209476
-0.0743516209476,-0.0297256857855
-0.0401246882793,-0.0350124688279
0.00410224438903,-0.0202119700748
0.0733042394015,-0.0153865336658
0.197493765586,-0.0255486284289
0.346733167082,-0.0356982543641
0.545960099751,-0.0458229426434
0.780187032419,-0.0458728179551
1.01940149626,-0.000860349127182
1.24859102244,0.0590149625935
1.45278054863,0.133790523691
1.58697007481,0.23355361596
1.61618453865,0.328366583541
1.53543640898,0.453279301746
1.3397755611,0.55325436409
1.06921446384,0.618154613466
0.758740648379,0.628029925187
0.478366583541,0.557880299252
0.243042394015,0.422743142145
0.0577805486284,0.267643391521
-0.0524438902743,0.112556109726
-0.107655860349,-0.0126184538653
-0.132867830424,-0.0879052369077
-0.133067331671,-0.123179551122
-0.12325436409,-0.118403990025
-0.0934413965087,-0.078578553616
-0.083566084788,-0.0387157107232
-0.0987281795511,0.00613466334165
-0.0988528678304,0.0259725685786
-0.123890274314,0.0108603491272
-0.133890274314,-0.00420199501247
-0.138927680798,-0.0292518703242
-0.149002493766,-0.0243391521197
-0.159089775561,-0.00955112219451
-0.169201995012,0.00516209476309
-0.179351620948,-0.000149625935162
-0.179513715711,-0.0153865336658
-0.19463840399,-0.0256234413965
-0.19470074813,-0.0308354114713
-0.19470074813,-0.0310847880299
-0.189650872818,-0.00629675810474
-0.18957605985,0.00354114713217
-0.17957605985,-0.00662094763092
-0.174775561097,-0.0217206982544
-0.170249376559,-0.0268703241895
-0.161134663342,-0.0321321695761
-0.16253117207,-0.0174314214464
-0.174538653367,-0.0127182044888
-0.182182044888,-0.0229675810474
-0.190511221945,-0.0282543640898
-0.204376558603,-0.0487905236908
-0.223603491272,-0.0596134663342
-0.222930174564,-0.0557605985037
-0.197069825436,-0.0421695760599
-0.200685785536,-0.0237406483791
-0.193591022444,-0.035349127182
-0.185685785536,-0.0369326683292
-0.182032418953,-0.0733541147132
-0.1927680798,-0.0495137157107
-0.197992518703,-0.0453117206983
-0.212980049875,-0.04572319202
-0.217855361596,-0.0608354114713
-0.212755610973,-0.0808354114713
-0.207693266833,-0.0958728179551
-0.222668329177,-0.0909850374065
-0.212556109726,-0.0711471321696
-0.212344139651,-0.0463466334165
-0.192032418953,-0.0565461346633
-0.191633416459,-0.0567581047382
-0.181122194514,-0.0770074812968
-0.165598503741,-0.0822443890274
-0.170099750623,-0.0824064837905
-0.16463840399,-0.0774812967581
-0.164239401496,-0.077506234414
-0.17885286783,-0.077493765586
-0.18849127182,-0.102506234414
-0.168067331671,-0.117518703242
-0.172593516209,-0.107443890274
-0.152044887781,-0.0923067331671
-0.156496259352,-0.0771197007481
-0.140972568579,-0.071970074813
-0.140461346633,-0.101907730673
-0.145,-0.111932668329
-0.12957605985,-0.131920199501
-0.12921446384,-0.131882793017
-0.12885286783,-0.131770573566
-0.123528678304,-0.131620947631
-0.128204488778,-0.141471321696
-0.117793017456,-0.161334164589
-0.122344139651,-0.166172069825
-0.12187032419,-0.155972568579
-0.116421446384,-0.120735660848
-0.110997506234,-0.120536159601
-0.115573566085,-0.130386533666
-0.110137157107,-0.140311720698
-0.114713216958,-0.170311720698
-0.104301745636,-0.175286783042
-0.0939401496259,-0.165162094763
-0.103628428928,-0.14993765586
-0.103341645885,-0.14970074813
-0.108029925187,-0.144451371571
-0.0977057356608,-0.159239401496
-0.0873940149626,-0.163940149626
-0.0820074812968,-0.133678304239
-0.0765336658354,-0.133428927681
-0.0711346633416,-0.133241895262
-0.0907481296758,-0.133117206983
-0.0804114713217,-0.158029925187
-0.0850748129676,-0.167905236908
-0.0847381546135,-0.152705735661
-0.0744264339152,-0.142493765586
-0.064102244389,-0.1322319202
-0.0437780548628,-0.121957605985
-0.0384538653367,-0.116708229426
-0.0180922693267,-0.106421446384
-0.0127182044888,-0.0760847880299
-0.0123566084788,-0.0407605985037
-0.00706982543641,-0.0354364089776
-0.0217955112219,-0.0401995012469
0.00350374064838,-0.0399750623441
-0.00623441396509,-0.0547630922693
-0.00100997506234,-0.029463840399
-0.0158229426434,-0.0140897755611
-0.0156608478803,-0.0136783042394
-0.0304613466334,-0.00826683291771
-0.0152618453865,-0.0178802992519
-0.0150872817955,0.00750623441396
-0.0148503740648,0.0429426433915
-0.00461346633416,0.0483790523691
-0.00938902743142,0.0487655860349
-0.0242019950125,0.029114713217
-0.0190523690773,0.0294014962594
-0.0238902743142,0.0147256857855
-0.0487281795511,0.0350997506234
-0.0485536159601,0.0254987531172
-0.0484164588529,0.0309351620948
-0.0482418952618,0.026433915212
-0.0430174563591,0.0169077306733
-0.0277805486284,0.0323566084788
-0.0275187032419,0.0528304239401
-0.0372568578554,0.0683291770574
-0.0419950124688,0.0537905236908
-0.0267955112219,0.0391895261845
-0.0216832917706,0.0145012468828
-0.0315960099751,0.00478802992519
-0.0314962593516,0.000112219451372
-0.0513466334165,0.00548628428928
-0.0611596009975,0.010897755611
-0.0560099750623,0.00628428927681
-0.0708229426434,0.00665835411471
-0.0456608478803,0.0270324189526
-0.0355112219451,0.0474064837905
-0.01536159601,0.0577556109726
-0.0202369077307,0.0530548628429
-0.0100997506234,0.0382793017456
-0.00993765586035,0.0284289276808
0.000211970074813,0.0185536159601
-0.0196259351621,0.0386533665835
-0.0394389027431,0.0387905236908
-0.0541645885287,0.0389650872818
-0.0538279301746,0.0291271820449
-0.0433790523691,0.024289276808
-0.0278304239401,0.0444139650873
-0.0222319201995,0.0595012468828
-0.0117331670823,0.0595760598504
-0.0112842892768,0.039650872818
-0.00593516209476,0.0397007481297
-0.00562344139651,0.0147256857855
-0.0103366583541,0.0197007481297
-0.005,0.0346758104738
-0.0146134663342,0.039650872818
-0.0392269326683,0.0296259351621
-0.0488154613466,0.02463840399
-0.0534413965087,0.0396259351621
-0.0280673316708,0.0446009975062
-0.0277930174564,0.0495386533666
-0.0225810473815,0.0445137157107
-0.00245635910224,0.0345635910224
-0.0124189526185,0.0246134663342
-0.00246882793017,0.0246009975062
-0.00254364089776,0.019463840399
-0.00754364089776,0.0293516209476
-0.0275436408978,0.0192269326683
-0.0325436408978,0.0142144638404
-0.0375685785536,0.0142518703242
-0.0426059850374,0.0293017456359
-0.0376433915212,0.0493516209476
-0.0376558603491,0.0693765586035
-0.0127182044888,0.0743890274314
0.0022319201995,0.0493516209476
0.0220947630923,0.0393142144638
0.0369451371571,0.0442269326683
0.0317955112219,0.0540523690773
0.0216583541147,0.0588902743142
0.0115211970075,0.0636907730673
-0.00361596009975,0.0736533665835
0.021246882793,0.0737032418953
0.0260972568579,0.0838279301746
0.0459476309227,0.10885286783
0.0658104738155,0.113765586035
0.0806857855362,0.113640897756
0.115561097257,0.0985411471322
0.130473815461,0.0734289276808
0.155498753117,0.0683291770574
0.150710723192,0.0581920199501
0.151284289277,0.0580049875312
0.1472319202,0.0478054862843
0.133678304239,0.0225935162095
0.150710723192,0.00241895261845
0.143329177057,0.0373566084788
0.156521197007,0.0474563591022
0.155236907731,0.0577306733167
0.149301745636,0.0432668329177
0.138453865337,0.0240648379052
0.117381546135,0.0151620947631
0.0908104738155,0.0364837905237
0.0635536159601,0.0379426433915
0.0404987531172,0.0444264339152
0.0267705735661,0.03572319202
0.00741895261845,0.0267705735661
-0.00238154613466,0.0174438902743
-0.0224563591022,0.0377431421446
-0.0376558603491,0.0576932668329
-0.0479052369077,0.0624563591022
-0.0481546134663,0.047144638404
-0.0534039900249,0.0318204488778
-0.0635910224439,0.0115835411471
-0.043753117207,0.0114089775561
-0.0539650872818,0.0113341645885
-0.0641895261845,-0.00375311720698
-0.079463840399,-0.0189152119701
-0.079825436409,-0.0140773067332
-0.0702618453865,-0.00428927680798
-0.060710723192,0.0204862842893
-0.0561970074813,0.0303241895262
-0.0467331670823,0.0451620947631
-0.0373441396509,0.0250249376559
-0.0580049875312,0.0249002493766
-0.0737157107232,0.00472568578554
-0.0945261845387,0.00448877805486
-0.09536159601,-0.0107730673317
-0.0911970074813,-0.0159850374065
-0.0520074812968,-0.0311346633416
0.0272069825436,-0.0412219451372
0.136483790524,-0.0363092269327
0.295798004988,-0.021421446384
0.505174563591,-0.0215461346633
0.729551122195,-0.0216334164589
0.988877805486,-0.0166708229426
1.25820448878,0.0132917705736
1.48249376559,0.103216957606
1.63675810474,0.198067331671
1.70102244389,0.317867830424
1.63032418953,0.432705735661
1.42980049875,0.517630922693
1.14436408978,0.547630922693
0.809052369077,0.522568578554
0.49385286783,0.447506234414
0.243715710723,0.327356608479
0.0335411471322,0.182269326683
-0.0666334164589,0.0371945137157
-0.106845386534,-0.0728802992519
-0.102082294264,-0.122930174564
-0.0722942643392,-0.113079800499
-0.0474812967581,-0.0632917705736
-0.0527182044888,-0.0284413965087
-0.0829052369077,-0.00356608478803
-0.113067331671,-0.00357855361596
-0.143167082294,0.00134663341646
-0.173266832918,0.00125935162095
-0.178291770574,0.00113466334165
-0.16825436409,0.00102244389027
-0.153241895262,-0.00410224438903
-0.138241895262,-0.0042144638404
-0.143266832918,0.000635910224439
-0.128316708229,-0.00451371571072
-0.143391521197,0.000274314214464
-0.158391521197,-0.00991271820449
-0.188403990025,-0.0250374064838
-0.193466334165,-0.0350748129676
-0.188678304239,-0.0201122194514
-0.194114713217,-0.00513715710723
-0.179887780549,0.00973815461347
-0.17614713217,0.00965087281796
-0.152980049875,0.00455112219451
-0.155461346633,-0.0155860349127
-0.148628428928,-0.0158478802993
-0.157456359102,-0.0213216957606
-0.181820448878,-0.0220324189526
-0.196408977556,-0.0330548628429
-0.200872817955,-0.0593142144638
-0.204812967581,-0.065710723192
-0.207980049875,-0.0520947630923
-0.215211970075,-0.0384289276808
-0.221583541147,-0.0295885286783
-0.217206982544,-0.0254364089776
-0.202356608479,-0.0159725685786
-0.187256857855,-0.036246882793
-0.172057356608,-0.0563591022444
-0.161907730673,-0.0613965087282
-0.171857855362,-0.0714463840399
-0.171907730673,-0.0715336658354
-0.171895261845,-0.0967456359102
-0.191857855362,-0.0820324189526
-0.216708229426,-0.0672942643392
-0.20644638404,-0.0475561097257
-0.206097256858,-0.0377805486284
-0.200735660848,-0.0429800498753
-0.200374064838,-0.0531920199501
-0.180037406484,-0.0784289276808
-0.169713216958,-0.0736907730673
-0.164401496259,-0.0790024937656
-0.154064837905,-0.08927680798
-0.148715710723,-0.0944887780549
-0.158354114713,-0.10463840399
-0.162917705736,-0.124750623441
-0.157431421446,-0.119775561097
-0.146920199501,-0.104713216958
-0.146396508728,-0.0896134663342
-0.160885286783,-0.104526184539
-0.145286783042,-0.104401496259
-0.11970074813,-0.119364089776
-0.119102244389,-0.124301745636
-0.108578553616,-0.129226932668
-0.113067331671,-0.124127182045
-0.112630922693,-0.134002493766
-0.0971571072319,-0.143890274314
-0.111720698254,-0.158690773067
-0.106246882793,-0.153391521197
-0.110760598504,-0.138054862843
-0.100274314214,-0.122718204489
-0.0947755610973,-0.117394014963
-0.104301745636,-0.137082294264
-0.0888154613466,-0.146832917706
-0.0984039900249,-0.141583541147
-0.0929925187032,-0.1413840399
-0.102593516209,-0.136109725686
-0.122244389027,-0.135822942643
-0.131895261845,-0.145548628429
-0.126521197007,-0.155224438903
-0.116122194514,-0.149837905237
-0.115748129676,-0.14433915212
-0.100374064838,-0.123865336658
-0.0899501246883,-0.103416458853
-0.0845386533666,-0.0980673316708
-0.0841271820449,-0.112780548628
-0.0837655860349,-0.107556109726
-0.0834788029925,-0.107306733167
-0.0682294264339,-0.0970448877805
-0.0580049875312,-0.0867331670823
-0.0528304239401,-0.0814463840399
-0.0325685785536,-0.0860972568579
-0.0272568578554,-0.0656608478803
-0.0218703241895,-0.0451496259352
-0.0215336658354,-0.0146009975062
-0.0161471321696,0.0159351620948
-0.0157730673317,0.021421446384
-0.0103865336658,0.0268329177057
-0.0100997506234,0.0222942643392
-0.0198753117207,0.0277805486284
-0.0197381546135,0.0282917705736
-0.0346259351621,0.0287406483791
-0.0494763092269,0.0242144638404
-0.0593017456359,0.0197381546135
-0.0391521197007,0.00533665835411
-0.0289650872818,0.0109725685786
-0.023753117207,0.0315461346633
-0.00846633416459,0.0420947630923
-0.0181296758105,0.0525561097257
-0.0227930174564,0.0480049875312
-0.0374064837905,0.0485162094763
-0.0421072319202,0.0440274314214
-0.0518952618454,0.034463840399
-0.0567456359102,0.0349002493766
-0.0716334164589,0.0253865336658
-0.0614962593516,0.0359226932668
-0.0563341645885,0.0215211970075
-0.0611596009975,0.0120947630923
-0.0509351620948,0.0176059850374
-0.0457481296758,0.0430049875312
-0.0455486284289,0.0683790523691
-0.0653990024938,0.0537032418953
-0.0602992518703,0.0540149625935
-0.0552867830424,0.03927680798
-0.0553117206983,0.0344887780549
-0.0503865336658,0.0397007481297
-0.0554862842893,0.0299002493766
-0.0705735660848,0.0351995012469
-0.0556359102244,0.030536159601
-0.0606359102244,0.0358603491272
-0.0455610972569,0.0310847880299
-0.0404114713217,0.0512718204489
-0.035187032419,0.0664713216958
-0.0399501246883,0.0566583541147
-0.0297755610973,0.0568453865337
-0.0296009975062,0.0270448877805
-0.0294887780549,0.0172568578554
-0.0293142144638,0.00745635910224
-0.0341396508728,0.0227057356608
-0.0439027431421,0.038042394015
-0.0485910224439,0.0234164588529
-0.0382294264339,0.0238029925187
-0.0177431421446,0.0241645885287
-0.0171945137157,0.0344264339152
-0.0215960099751,0.0547007481297
-0.0410349127182,0.0649251870324
-0.0404987531172,0.0601620947631
-0.0399750623441,0.0553241895262
-0.0395012468828,0.0403740648379
-0.0339775561097,0.0403740648379
-0.0334663341646,0.0354738154613
-0.0379551122195,0.0406483790524
-0.0424314214464,0.035885286783
-0.0469077306733,0.0261097256858
-0.036421446384,0.031246882793
-0.0309725685786,0.0413591022444
-0.0256109725686,0.0515336658354
-0.0152992518703,0.0517206982544
-0.0251122194514,0.0569451371571
-0.01,0.0221072319202
-0.0149501246883,0.0172069825436
-0.0149750623441,0.0122942643392
-0.0200748129676,0.0274563591022
-0.0252244389027,0.0276932668329
-0.0253990024938,0.0230049875312
-0.0155112219451,0.0332543640898
-0.0106109725686,0.0384663341646
-0.01072319202,0.0536034912718
-0.00572319201995,0.0587157107232
-0.00073566084788,0.0838403990025
-0.00581047381546,0.0989027431421
0.0190523690773,0.0839027431421
0.0438528678304,0.0789152119701
0.0386907730673,0.0889401496259
0.0435286783042,0.0790523690773
0.0533665835411,0.0942394014963
0.0732294264339,0.0795261845387
0.0931421446384,0.0597256857855
0.0980673316708,0.0699376558603
0.137967581047,0.0900623441397
0.147805486284,0.100174563591
0.152668329177,0.105249376559
0.142506234414,0.0903117206983
0.142443890274,0.055349127182
0.122581047382,0.0403366583541
0.112942643392,0.0453241895262
0.0987032418953,0.0453117206983
0.0999875311721,0.0453241895262
0.111845386534,0.0303865336658
0.109364089776,0.0204613466334
0.122581047382,0.0306359102244
0.126359102244,0.0409975062344
0.115548628429,0.051608478803
0.109862842893,0.0425561097257
0.0740274314214,0.0237780548628
0.0426932668329,0.0151995012469
0.00559850374065,0.0316458852868
-0.0273441396509,0.0329925187032
-0.046072319202,0.0341521197007
-0.0404488778055,0.0350249376559
-0.04536159601,0.0355486284289
-0.0455236907731,0.0357605985037
-0.0407730673317,0.0106483790524
-0.0460473815461,0.03036159601
-0.0512593516209,0.0400748129676
-0.046421446384,0.0199002493766
-0.0566209476309,0.0298379052369
-0.0669451371571,0.00981296758105
-0.0723690773067,0.0247755610973
-0.0729177057357,0.0297007481297
-0.093566084788,0.0246633416459
-0.104264339152,0.0146259351621
-0.0999501246883,0.0196758104738
-0.0906608478803,0.0197506234414
-0.0813466334165,0.034825436409
-0.0870324189526,0.0349501246883
-0.0876558603491,0.0350124688279
-0.0983416458853,0.0101122194514
-0.0990648379052,-0.00482543640898
-0.0598628428928,-0.0247506234414
-0.00568578553616,-0.00973815461347
0.0985162094763,-0.00971321695761
0.232743142145,0.000361596009975
0.422019950125,-0.0245386533666
0.666359102244,-0.0393890274314
0.92578553616,-0.0242019950125
1.20024937656,0.0259600997506
1.46981296758,0.111097256858
1.67938902743,0.196184538653
1.77900249377,0.301271820449
1.7236159601,0.391334164589
1.51326683292,0.456334164589
1.20793017456,0.486309226933
0.837643391521,0.466321695761
0.487443890274,0.386359102244
0.1922319202,0.251471321696
-0.00293017456359,0.0966458852868
-0.0930548628429,-0.0131421446384
-0.123142144638,-0.0679800498753
-0.113229426434,-0.082855361596
-0.0732917705736,-0.0777930174564
-0.0383665835411,-0.0577556109726
-0.0534663341646,-0.0227182044888
-0.0535536159601,0.00225685785536
-0.0936408977556,0.0222443890274
-0.133815461347,0.0222443890274
-0.163952618454,0.00730673316708
-0.189064837905,-0.00256857855362
-0.179114713217,-0.0224064837905
-0.174152119701,-0.0222069825436
-0.169127182045,0.00293017456359
-0.154077306733,0.0330798004988
-0.154139650873,0.028216957606
-0.139326683292,0.0133291770574
-0.139738154613,-0.00660847880299
-0.150548628429,-0.0115710723192
-0.166857855362,-0.0165835411471
-0.178703241895,-0.0165710723192
-0.18114713217,-0.0265710723192
-0.194289276808,-0.026608478803
-0.208067331671,-0.0418578553616
-0.217206982544,-0.0223940149626
-0.221408977556,-0.00829177057357
-0.210336658354,0.000511221945137
-0.208653366584,-0.010885286783
-0.196221945137,-0.0173067331671
-0.197980049875,-0.0236408977556
-0.183927680798,-0.0347007481297
-0.199301745636,-0.0404613466334
-0.194301745636,-0.0508229426434
-0.199089775561,-0.050885286783
-0.218790523691,-0.065710723192
-0.203541147132,-0.0604738154613
-0.213354114713,-0.0503865336658
-0.208216957606,-0.0304364089776
-0.208117206983,-0.0205486284289
-0.202980049875,-0.0456733167082
-0.182842892768,-0.0557855361596
-0.177680798005,-0.0608728179551
-0.17253117207,-0.0659600997506
-0.182344139651,-0.071072319202
-0.182119700748,-0.10114713217
-0.186882793017,-0.106234413965
-0.191608478803,-0.111221945137
-0.181309226933,-0.0961221945137
-0.190972568579,-0.0810473815461
-0.170623441397,-0.0610224438903
-0.160249376559,-0.0659725685786
-0.154850374065,-0.0659351620948
-0.139401496259,-0.0908229426434
-0.133927680798,-0.0807356608479
-0.143453865337,-0.0856483790524
-0.152967581047,-0.100648379052
-0.162493765586,-0.120548628429
-0.147032418953,-0.140374064838
-0.156571072319,-0.15006234414
-0.151097256858,-0.13963840399
-0.145610972569,-0.119239401496
-0.125087281796,-0.118865336658
-0.119538653367,-0.128528678304
-0.0989775561097,-0.138142144638
-0.0884164588529,-0.122755610973
-0.0928927680798,-0.137369077307
-0.0874438902743,-0.137032418953
-0.0720448877805,-0.151708229426
-0.076608478803,-0.166396508728
-0.0861720698254,-0.16102244389
-0.110760598504,-0.150573566085
-0.130324189526,-0.140074812968
-0.134887780549,-0.12957605985
-0.149426433915,-0.139089775561
-0.12397755611,-0.133578553616
-0.11355361596,-0.113042394015
-0.0981670822943,-0.117518703242
-0.0878179551122,-0.121995012469
-0.072506234414,-0.136571072319
-0.0821820448878,-0.15614713217
-0.0818578553616,-0.150773067332
-0.0815586034913,-0.135411471322
-0.0762344139651,-0.1
-0.070897755611,-0.0894763092269
-0.0505860349127,-0.0738653366584
-0.0352992518703,-0.0582917705736
-0.0200124688279,-0.0477182044888
-0.00971321695761,-0.0321197007481
0.00554862842893,-0.0315461346633
0.0108603491272,-0.0109600997506
0.0111221945137,-0.0304613466334
0.00133416458853,-0.0249501246883
0.0015710723192,-0.0144139650873
-0.0132044887781,0.00117206982544
-0.0229675810474,0.00677057356608
-0.0377057356608,0.00743142144638
-0.0474189526185,0.0231421446384
-0.0321321695761,0.0288279301746
-0.0418329177057,0.0295261845387
-0.0315586034913,0.0351995012469
-0.0312967581047,0.0408478802993
-0.0260847880299,0.0313840399002
-0.030885286783,0.0219451371571
-0.04072319202,0.0125436408978
-0.0455735660848,0.00811720698254
-0.0603740648379,0.00374064837905
-0.0701246882793,0.0193640897756
-0.0648753117207,0.0100124688279
-0.0546259351621,0.0206733167082
-0.0444139650873,0.0163715710723
-0.0442019950125,0.0370698254364
-0.0389900249377,0.0577805486284
-0.0437905236908,0.0584289276808
-0.048566084788,0.0540274314214
-0.0383665835411,0.0345760598504
-0.048216957606,0.0201496259352
-0.0581047381546,0.01072319202
-0.058042394015,0.0262842892768
-0.0679800498753,0.0268329177057
-0.0629052369077,0.0223441396509
-0.0728304239401,0.017855361596
-0.0477306733167,0.00839152119701
-0.0326558603491,0.0238778054863
-0.0275436408978,0.039289276808
-0.00745635910224,0.034650872818
0.00260598503741,0.0249501246883
0.00763092269327,0.0152244389027
0.00760598503741,-0.00956359102244
-0.0174314214464,0.000673316708229
-0.0274314214464,0.000935162094763
-0.0324064837905,0.0111970074813
-0.0573441396509,0.0215211970075
-0.0622568578554,0.0168204488778
-0.047144638404,0.0271695760599
-0.0370199501247,0.0375810473815
-0.0118204488778,0.0379675810474
-0.0165586034913,0.0433291770574
-0.00633416458853,0.0336783042394
-0.00110972568579,0.0139526184539
-0.000822942643392,-0.0107481296758
-0.0105112219451,0.00457605985037
-0.0351122194514,-0.000124688279302
-0.0396882793017,0.0152119700748
-0.0341396508728,0.0205985037406
-0.0435286783042,0.0209600997506
-0.0278802992519,0.0213840399002
-0.0272568578554,0.016783042394
-0.0266458852868,0.0271197007481
-0.00613466334165,0.0324314214464
-0.00567331670823,0.0477057356608
-0.00528678304239,0.0379426433915
-0.00990024937656,0.0181670822943
-0.0144763092269,0.018391521197
-0.0240773067332,0.00859102244389
-0.0236408977556,0.0238154613466
-0.0331920199501,0.0190399002494
-0.0177431421446,0.00431421446384
-0.0273441396509,0.00956359102244
-0.0270074812968,0.0147880299252
-0.00674563591022,0.035
-0.00160847880299,0.0502618453865
-0.00155860349127,0.0504613466334
0.00837905236908,0.0456483790524
0.0133416458853,0.0408104738155
0.0132793017456,0.0209850374065
0.00821695760599,0.0411970074813
0.0231795511222,0.0613965087282
0.0281172069825,0.0716334164589
0.033042394015,0.0769077306733
0.0429675810474,0.067144638404
0.0629052369077,0.0774064837905
0.0728304239401,0.0826309226933
0.0927556109726,0.102855361596
0.102693266833,0.0880798004988
0.11753117207,0.0882294264339
0.122319201995,0.0533416458853
0.14710723192,0.0384912718204
0.151895261845,0.0386533665835
0.146695760599,0.0239526184539
0.136471321696,0.0442643391521
0.146271820449,0.0345635910224
0.146072319202,0.0397880299252
0.145885286783,0.0199501246883
0.150835411471,0.0350748129676
0.145922693267,0.0452493765586
0.131296758105,0.0403990024938
0.127007481297,0.0455486284289
0.108154613466,0.0255610972569
0.0999127182045,0.00554862842893
0.0872693266833,-0.00441396508728
0.0603366583541,0.0057855361596
0.0540773067332,0.021246882793
0.0233665835411,0.0219201995012
0.0179177057357,0.0228428927681
0.00734413965087,0.0240149625935
0.00623441396509,0.0303366583541
-0.0106109725686,0.0317331670823
-0.0483665835411,0.0380673316708
-0.0470074812968,0.0191770573566
-0.0613965087282,-0.000112219451372
-0.0613341645885,-0.00478802992519
-0.0615211970075,-0.0047506234414
-0.0468204488778,-0.00981296758105
-0.0470947630923,0.0100997506234
-0.052319201995,0.00997506234414
-0.0424563591022,0.00988778054863
-0.0476184538653,0.00985037406484
-0.0677805486284,0.0198628428928
-0.0580798004988,0.0299501246883
-0.0634912718204,0.0250374064838
-0.0740274314214,0.0100997506234
-0.094650872818,-0.0098753117207
-0.100261845387,-0.0349376558603
-0.105935162095,-0.0349875311721
-0.106645885287,-0.0349376558603
-0.0573441396509,-0.0347630922693
0.00193266832918,-0.0345261845387
0.0962718204489,-0.019289276808
0.245648379052,-0.0191271820449
0.44,-0.0189900249377
0.659314214464,-0.0238778054863
0.908591022444,-0.00376558603491
1.18788029925,0.0263216957606
1.42715710723,0.0963840399002
1.58643391521,0.2113840399
1.63573566085,0.341433915212
1.52512468828,0.456546134663
1.28960099751,0.531708229426
0.984164588529,0.546920199501
0.658840399002,0.502144638404
0.348566084788,0.382331670823
0.103341645885,0.247456359102
-0.0419201995012,0.0925561097257
-0.13216957606,-0.0123566084788
-0.157418952618,-0.0922568578554
-0.132693266833,-0.1122319202
-0.117917705736,-0.0721197007481
-0.0831172069825,-0.0270199501247
-0.0783042394015,0.00312967581047
-0.0884538653367,0.00831670822943
-0.098566084788,0.00849127182045
-0.1286159601,-0.00135910224439
-0.133603491272,-0.0112344139651
-0.143591022444,-0.0110972568579
-0.148591022444,-0.0210473815461
-0.153603491272,-0.0110847880299
-0.153653366584,-0.0311221945137
-0.153740648379,-0.0461596009975
-0.16385286783,-0.0311596009975
-0.168990024938,-0.0261097256858
-0.179039900249,-0.0310598503741
-0.189014962594,-0.0259725685786
-0.193940149626,-0.0458603491272
-0.193778054863,-0.0256982543641
-0.188591022444,-0.0204862842893
-0.173441396509,0.00971321695761
-0.163379052369,-0.010187032419
-0.15349127182,-0.020187032419
-0.153778054863,-0.0452493765586
-0.154376558603,-0.0602992518703
-0.160324189526,-0.0452743142145
-0.171733167082,-0.0301496259352
-0.183653366584,-0.0200124688279
-0.201184538653,-0.0349750623441
-0.204251870324,-0.035174563591
-0.207793017456,-0.0355735660848
-0.196658354115,-0.0212967581047
-0.190548628429,-0.0223316708229
-0.189189526185,-0.033753117207
-0.182381546135,-0.0554239401496
-0.169987531172,-0.0672069825436
-0.166970074813,-0.0788902743142
-0.178341645885,-0.0703117206983
-0.194114713217,-0.0713216957606
-0.204501246883,-0.0819201995012
-0.199526184539,-0.097144638404
-0.194364089776,-0.102044887781
-0.184127182045,-0.10187032419
-0.183902743142,-0.0716583541147
-0.178678304239,-0.0615336658354
-0.17355361596,-0.0565960099751
-0.168441396509,-0.0617082294264
-0.168304239401,-0.0768578553616
-0.168104738155,-0.096970074813
-0.157817955112,-0.107057356608
-0.167431421446,-0.107007481297
-0.161970074813,-0.10687032419
-0.161433915212,-0.131720698254
-0.145847880299,-0.126533665835
-0.160211970075,-0.1263840399
-0.144551122195,-0.101159600998
-0.138902743142,-0.100985037406
-0.133291770574,-0.115798004988
-0.132718204489,-0.130586034913
-0.122194513716,-0.14042394015
-0.126695760599,-0.145249376559
-0.131209476309,-0.15006234414
-0.13572319202,-0.149788029925
-0.130211970075,-0.154488778055
-0.119713216958,-0.174201995012
-0.114189526185,-0.173865336658
-0.0936533665835,-0.138528678304
-0.0930798004988,-0.133179551122
-0.0875187032419,-0.132855361596
-0.0870199501247,-0.137543640898
-0.0965710723192,-0.157269326683
-0.0961596009975,-0.157082294264
-0.0957605985037,-0.15687032419
-0.10036159601,-0.141645885287
-0.104950124688,-0.146346633416
-0.10457605985,-0.151047381546
-0.104189526185,-0.160698254364
-0.0987655860349,-0.150286783042
-0.103329177057,-0.129887780549
-0.0928678304239,-0.114463840399
-0.0773940149626,-0.119064837905
-0.0669201995012,-0.123728179551
-0.0515336658354,-0.128416458853
-0.0411596009975,-0.118142144638
-0.0408478802993,-0.0928428927681
-0.0355610972569,-0.0825311720698
-0.0352493765586,-0.0921820448878
-0.0348877805486,-0.0668578553616
-0.0344389027431,-0.0714837905237
-0.0289775561097,-0.0560598503741
-0.0184413965087,-0.0356483790524
-0.00788029925187,-0.0102244389027
0.0076433915212,0.0151995012469
0.0131421446384,0.000548628428928
0.00856608478803,0.000872817955112
0.0039650872818,0.0061970074813
-0.0106982543641,-0.00346633416459
-0.0154114713217,0.0119326683292
-0.0201620947631,0.0173316708229
-0.0298753117207,0.00778054862843
-0.0345511221945,0.00325436408978
-0.0341521197007,0.00879052369077
-0.023753117207,0.0243391521197
-0.0182668329177,0.0449251870324
-0.0327930174564,0.0504987531172
-0.0223316708229,0.0259476309227
-0.0369201995012,0.016421446384
-0.0415960099751,0.0118703241895
-0.0513341645885,0.0123316708229
-0.0660847880299,0.0328179551122
-0.0758354114713,0.0133291770574
-0.0755735660848,0.0088029925187
-0.0702618453865,-0.00071072319202
-0.0499002493766,-0.00514962593516
-0.039463840399,0.0154613466334
-0.0240024937656,0.0311097256858
-0.023578553616,0.0366832917706
-0.028216957606,0.0221695760599
-0.0228927680798,0.0226059850374
-0.0276184538653,0.0230548628429
-0.0323566084788,0.0335286783042
-0.0471321695761,0.0240274314214
-0.0368453865337,0.024463840399
-0.0515710723192,0.0149002493766
-0.0562842892768,0.010349127182
-0.0459476309227,0.00584788029925
-0.0456359102244,0.0313840399002
-0.0203740648379,0.0368952618454
-0.0251246882793,0.047319201995
-0.0199002493766,0.0426683291771
-0.0197132169576,0.0279052369077
-0.0245760598504,0.00820448877805
-0.0194139650873,0.0135037406484
-0.0192643391521,0.00877805486284
-0.0140897755611,0.00402743142145
-0.0288902743142,0.00423940149626
-0.0336034912718,-0.000523690773067
-0.0382418952618,0.0148004987531
-0.0428179551122,0.0201371571072
-0.0223441396509,0.0454364089776
-0.0118204488778,0.05072319202
-0.00625935162095,0.040897755611
0.00435162094763,0.0360598503741
0.00995012468828,-0.00377805486284
0.0155236907731,-0.0086783042394
0.00605985037406,-0.00356608478803
-0.00337905236908,0.00149625935162
-0.00780548628429,0.011608478803
-0.0222069825436,0.00672069825436
-0.0215960099751,0.00187032418953
-0.0309600997506,0.0120573566085
-0.03036159601,0.0221820448878
-0.0147506234414,0.052319201995
-0.0141770573566,0.0473940149626
0.00633416458853,0.0424688279302
-0.00324189526185,0.0275187032419
-0.00293017456359,0.00755610972569
-0.0126309226933,0.00759351620948
-0.0174189526185,0.0126433915212
-0.0222069825436,0.00270573566085
-0.0170074812968,0.00783042394015
-0.026783042394,0.00799251870324
-0.0316334164589,0.0131172069825
-0.0265586034913,0.0232668329177
-0.0214588528678,0.0483291770574
0.00360349127182,0.0483541147132
0.0136408977556,0.0533790523691
0.0286533665835,0.0384039900249
0.0286783042394,0.033391521197
0.0486907730673,0.053391521197
0.0486658354115,0.058391521197
0.0436658354115,0.0734289276808
0.0437032418953,0.0784912718204
0.0586907730673,0.0686034912718
0.0637032418953,0.0687281795511
0.0837032418953,0.0638029925187
0.0937157107232,0.0688279301746
0.0986783042394,0.0838029925187
0.128628428928,0.078753117207
0.148566084788,0.0637406483791
0.158478802993,0.0437032418953
0.168516209476,0.0136284289277
0.158690773067,-0.00148379052369
0.144077306733,0.00845386533666
0.144837905237,0.0134164588529
0.146109725686,0.0184289276808
0.152942643392,0.0184164588529
0.15042394015,0.0184663341646
0.148628428928,0.028578553616
0.142381546135,0.0388279301746
0.131521197007,0.0393765586035
0.100822942643,0.0302493765586
0.0848628428928,0.0213840399002
0.0583416458853,-0.00729426433915
0.0310473815461,-0.0159351620948
0.0129177057357,-0.00466334164589
0.00905236907731,0.0113341645885
0.00952618453865,0.0170074812968
0.00967581047382,0.0122942643392
0.0045885286783,0.00728179551122
-0.00558603491272,0.0220573566085
-0.010710723192,-0.00822942643392
-0.0308104738155,0.00659600997506
-0.0308229426434,0.00655860349127
-0.0458478802993,0.00155860349127
-0.0559226932668,-0.0184788029925
-0.0610349127182,-0.0185286783042
-0.0812593516209,-0.0135910224439
-0.0765087281796,-0.0236408977556
-0.081783042394,0.00629675810474
-0.0771321695761,0.0111970074813
-0.0674812967581,0.00608478802993
-0.0578428927681,0.000935162094763
-0.0382418952618,0.00074812967581
-0.0387032418953,-0.00440149625935
-0.0542269326683,0.0154488778055
-0.0748379052369,-0.00477556109726
-0.0905112219451,-0.0149875311721
-0.111197007481,-0.060174563591
-0.116907730673,-0.0702493765586
-0.112568578554,-0.0702618453865
-0.0881795511222,-0.0451620947631
-0.0287406483791,-0.0251371571072
0.0557730673317,-0.020174563591
0.170274314214,-0.0352618453865
0.314825436409,-0.0553740648379
0.504376558603,-0.0753990024938
0.728902743142,-0.0803990024938
0.978428927681,-0.0503865336658
1.21294264339,0.0345760598504
1.4125436409,0.129526184539
1.53720698254,0.244501246883
1.55199501247,0.369526184539
1.46687032419,0.509538653367
1.28180798005,0.594488778055
1.03682044888,0.644364089776
0.761895261845,0.614201995012
0.496970074813,0.519089775561
0.252007481297,0.364027431421
0.0819825436409,0.188952618454
-0.0380548628429,0.0438528678304
-0.103104738155,-0.0662967581047
-0.118104738155,-0.101483790524
-0.103017456359,-0.121645885287
-0.0879052369077,-0.101695760599
-0.0577431421446,-0.0466957605985
-0.0525685785536,-0.0216708229426
-0.0623940149626,0.00829177057357
-0.0822319201995,0.0282294264339
-0.112082294264,0.0281296758105
-0.131957605985,-0.0119950124688
-0.146907730673,-0.0321197007481
-0.161845386534,-0.0272443890274
-0.17174563591,-0.0274563591022
-0.176546134663,-0.0126059850374
-0.181371571072,-0.0227057356608
-0.176159600998,-0.0227182044888
-0.17102244389,-0.0227057356608
-0.15602244389,-0.0227805486284
-0.151271820449,0.0120822942643
-0.151845386534,0.0119326683292
-0.162842892768,0.00679551122195
-0.174413965087,-0.0133042394015
-0.171670822943,-0.0184164588529
-0.17957605985,-0.0137157107232
-0.183054862843,-0.0293640897756
-0.191920199501,-0.0253117206983
-0.205872817955,-0.0414962593516
-0.209663341646,-0.0429301745636
-0.198004987531,-0.0495511221945
-0.185748129676,-0.0413092269327
-0.187780548628,-0.0130798004988
-0.194064837905,-0.00970074812968
-0.189663341646,-0.0259725685786
-0.184763092269,-0.0467955112219
-0.15957605985,-0.0522319201995
-0.164251870324,-0.0523815461347
-0.173940149626,-0.0574189526185
-0.183703241895,-0.0523940149626
-0.198528678304,-0.0674438902743
-0.193354114713,-0.077506234414
-0.20312967581,-0.0676433915212
-0.17783042394,-0.0678054862843
-0.172431421446,-0.0380049875312
-0.156945137157,-0.0481920199501
-0.141421446384,-0.0583291770574
-0.160822942643,-0.0784164588529
-0.155224438903,-0.0785162094763
-0.174613466334,-0.0835162094763
-0.174027431421,-0.0885411471322
-0.183428927681,-0.0885162094763
-0.18283042394,-0.103441396509
-0.162182044888,-0.113329177057
-0.151483790524,-0.108117206983
-0.145748129676,-0.0879052369077
-0.145,-0.0876932668329
-0.124264339152,-0.0824812967581
-0.128578553616,-0.0973067331671
-0.117905236908,-0.102144638404
-0.117269326683,-0.111957605985
-0.121670822943,-0.11180798005
-0.12614713217,-0.136645885287
-0.130598503741,-0.136471321696
-0.155024937656,-0.161259351621
-0.144463840399,-0.17602244389
-0.138927680798,-0.150748129676
-0.128316708229,-0.145511221945
-0.117705735661,-0.140249376559
-0.0971321695761,-0.130012468828
-0.0865710723192,-0.134775561097
-0.096072319202,-0.144538653367
-0.0856109725686,-0.129364089776
-0.105174563591,-0.139177057357
-0.124738154613,-0.158990024938
-0.134239401496,-0.173778054863
-0.143765586035,-0.17355361596
-0.128241895262,-0.153216957606
-0.107705735661,-0.137917705736
-0.0971571072319,-0.117643391521
-0.0865960099751,-0.132319201995
-0.0810473815461,-0.126995012469
-0.075536159601,-0.141683291771
-0.0851122194514,-0.131433915212
-0.0896882793017,-0.126184538653
-0.0943266832918,-0.125972568579
-0.0939650872818,-0.125710723192
-0.0785411471322,-0.12542394015
-0.0581172069825,-0.115049875312
-0.0426059850374,-0.0846758104738
-0.027144638404,-0.0592643391521
-0.0116458852868,-0.0338902743142
0.00385286783042,-0.0385162094763
0.0093391521197,-0.0181546134663
0.019825436409,0.00221945137157
0.0152992518703,0.0175685785536
0.0157605985037,0.0228927680798
0.00114713216958,0.023216957606
-0.0185037406484,-0.00645885286783
-0.0231172069825,0.00895261845387
-0.0327680798005,0.00940149625935
-0.0373441396509,0.0149002493766
-0.0469077306733,0.0254364089776
-0.041433915212,0.0159226932668
-0.0309600997506,0.016433915212
-0.0254862842893,0.0268703241895
-0.0199875311721,0.0422817955112
-0.0195386533666,0.0526558603491
-0.0241396508728,0.038042394015
-0.0337905236908,0.0184538653367
-0.0335037406484,0.0188778054863
-0.0482044887781,0.0143142144638
-0.0479426433915,0.0347880299252
-0.057680798005,0.0353241895262
-0.0623690773067,0.0409102244389
-0.0470324189526,0.0214713216958
-0.0266458852868,0.0220324189526
-0.0112593516209,0.0375561097257
-0.015885286783,0.0529925187032
-0.0155486284289,0.0484289276808
-0.0252369077307,0.0438279301746
-0.0349625935162,0.0191895261845
-0.0497132169576,0.00961346633416
-0.0395261845387,0.0250374064838
-0.0493890274314,0.0204738154613
-0.0592518703242,0.035897755611
-0.059102244389,0.0313965087282
-0.0489152119701,0.0269077306733
-0.0387032418953,0.0274189526185
-0.0284538653367,0.0378678304239
-0.0232044887781,0.0532418952618
-0.0129426433915,0.0535910224439
-0.0127057356608,0.0389027431421
-0.0325187032419,0.0292019950125
-0.0323566084788,0.0195012468828
-0.032144638404,0.0247506234414
-0.0319326683292,0.0399875311721
-0.0466708229426,0.0451995012469
-0.0463216957606,0.0454239401496
-0.0459226932668,0.030710723192
-0.0454114713217,0.0159975062344
-0.0348628428928,0.0262718204489
-0.0342518703242,0.0414837905237
-0.0286533665835,0.0565710723192
-0.018042394015,0.0515586034913
-0.0174812967581,0.0415336658354
-0.0269201995012,0.0215461346633
-0.0313341645885,0.0266209476309
-0.0407605985037,0.0217082294264
-0.050174563591,0.0268079800499
-0.0296134663342,0.0419201995012
-0.0240648379052,0.0370698254364
-0.0385536159601,0.0372319201995
-0.0431296758105,0.0473940149626
-0.0527556109726,0.0475187032419
-0.047493765586,0.0475311720698
-0.0373067331671,0.0374812967581
-0.0521820448878,0.0274438902743
-0.0320573566085,0.0224563591022
-0.0469326683292,0.022506234414
-0.041783042394,0.0375810473815
-0.0316458852868,0.0426309226933
-0.0265211970075,0.0477057356608
-0.0213965087282,0.0427556109726
-0.0213341645885,0.0328304239401
-0.0113092269327,0.0479177057357
-0.0013216957606,0.0679551122195
0.00362842892768,0.0729177057357
0.0185536159601,0.0678428927681
0.0234289276808,0.0528054862843
0.0233167082294,0.0577431421446
0.0481920199501,0.0628054862843
0.0430798004988,0.077855361596
0.0479925187032,0.0728927680798
0.0629426433915,0.0729301745636
0.0779925187032,0.0729551122195
0.0980548628429,0.0779925187032
0.123104738155,0.103079800499
0.138104738155,0.103142144638
0.138054862843,0.0731421446384
0.147917705736,0.0479925187032
0.132730673317,0.0278179551122
0.127543640898,0.012680798005
0.117406483791,0.0226433915212
0.0974438902743,0.0376433915212
0.102705735661,0.0326184538653
0.0832543640898,0.0275561097257
0.0791770573566,0.00744389027431
0.0805735660848,0.0123316708229
0.0725311720698,0.0172443890274
0.0651122194514,0.0222194513716
0.0332543640898,0.0273566084788
0.0118827930175,0.0177057356608
-0.0192144638404,0.0133167082294
-0.0402743142145,0.0192269326683
-0.0564837905237,0.0355112219451
-0.0731421446384,0.0470199501247
-0.0803990024938,0.0536408977556
-0.0733416458853,0.025187032419
-0.0669326683292,0.0165087281796
-0.0561221945137,0.022493765586
-0.0607605985037,0.0230548628429
-0.0506982543641,0.0281920199501
-0.0658354114713,0.0380548628429
-0.0910349127182,0.0277930174564
-0.101209476309,0.0124563591022
-0.1163840399,0.00218204488778
-0.116483790524,-0.00294264339152
-0.111583541147,0.0170074812968
-0.106758104738,0.0119825436409
-0.101970074813,0.00697007481297
-0.0822319201995,0.00697007481297
-0.0625187032419,0.0068578553616
-0.062855361596,0.00672069825436
-0.0782793017456,0.0165835411471
-0.103728179551,-0.0035536159601
-0.109251870324,-0.0236907730673
-0.109862842893,-0.0338902743142
-0.0755486284289,-0.0440523690773
-0.016246882793,-0.0241521197007
0.0830174563591,-0.0142394014963
0.222294264339,-0.0192019950125
0.386583541147,-0.0291271820449
0.610872817955,-0.0490773067332
0.880162094763,-0.0440274314214
1.14451371571,0.0260349127182
1.38386533666,0.146097256858
1.54320448878,0.26608478803
1.59758104738,0.395997506234
1.53195760599,0.500910224439
1.35634663342,0.575860349127
1.11581047382,0.625835411471
0.820374064838,0.610885286783
0.520024937656,0.550997506234
0.24470074813,0.411097256858
0.0394264339152,0.246159600998
-0.0807855361596,0.0861596009975
-0.135922693267,-0.0338279301746
-0.131034912718,-0.0888029925187
-0.0961221945137,-0.103802992519
-0.0762219451372,-0.0538279301746
-0.0662967581047,-0.0338902743142
-0.0713715710723,-0.00897755610973
-0.0914713216958,-0.00401496259352
-0.116558603491,0.00596009975062
-0.141633416459,0.0110224438903
-0.156683291771,0.0160598503741
-0.181670822943,0.00604738154613
-0.181670822943,0.000985037406484
-0.186645885287,-0.0140648379052
-0.176670822943,-0.00911471321696
-0.176720698254,-0.0141895261845
-0.16680798005,-0.014289276808
-0.176895261845,-0.00447630922693
-0.181932668329,-0.0196758104738
-0.191920199501,-0.034812967581
-0.201857855362,-0.0348628428928
-0.20174563591,-0.0298503740648
-0.196558603491,-0.024825436409
-0.196371571072,-0.00480049875312
-0.186271820449,-0.00980049875312
-0.181309226933,-0.00485037406484
-0.156620947631,-0.0148753117207
-0.167306733167,-0.0149750623441
-0.168503740648,-0.0150748129676
-0.160349127182,-0.00527431421446
-0.167842892768,-0.0155735660848
-0.190972568579,-0.0259600997506
-0.209650872818,-0.046608478803
-0.203678304239,-0.0426059850374
-0.212718204489,-0.0439152119701
-0.206433915212,-0.0255860349127
-0.204613466334,-0.0224314214464
-0.197019950125,-0.0342144638404
-0.193653366584,-0.045885286783
-0.199613466334,-0.0622693266833
-0.180049875312,-0.0483167082294
-0.185149625935,-0.0789775561097
-0.190012468828,-0.0592269326683
-0.199750623441,-0.0642269326683
-0.199501246883,-0.0840648379052
-0.199289276808,-0.0839900249377
-0.189139650873,-0.0689775561097
-0.16897755611,-0.0541271820449
-0.158802992519,-0.0543391521197
-0.1486159601,-0.0495760598504
-0.153441396509,-0.0747755610973
-0.168241895262,-0.0899625935162
-0.167992518703,-0.100124688279
-0.177680798005,-0.0952867830424
-0.162281795511,-0.10036159601
-0.17187032419,-0.0903990024938
-0.171396508728,-0.105324189526
-0.170897755611,-0.120224438903
-0.16536159601,-0.12006234414
-0.159800498753,-0.114850374065
-0.149201995012,-0.10963840399
-0.133578553616,-0.109401496259
-0.122992518703,-0.114139650873
-0.14246882793,-0.133952618454
-0.131995012469,-0.143728179551
-0.141558603491,-0.13855361596
-0.136184538653,-0.148379052369
-0.145822942643,-0.138142144638
-0.135448877805,-0.152905236908
-0.130099750623,-0.162630922693
-0.134725685786,-0.157319201995
-0.124326683292,-0.136982543641
-0.113865336658,-0.136670822943
-0.0984039900249,-0.136408977556
-0.0879800498753,-0.146184538653
-0.0925810473815,-0.155960099751
-0.0872568578554,-0.16072319202
-0.0869451371571,-0.17542394015
-0.0917082294264,-0.165174563591
-0.101471321696,-0.159912718204
-0.101184538653,-0.164688279302
-0.110822942643,-0.164426433915
-0.105448877805,-0.149064837905
-0.100074812968,-0.148653366584
-0.0947132169576,-0.128241895262
-0.0843890274314,-0.122867830424
-0.0690773067332,-0.142581047382
-0.0537780548628,-0.142331670823
-0.0384788029925,-0.142044887781
-0.0332044887781,-0.126783042394
-0.0329800498753,-0.131483790524
-0.0227805486284,-0.136246882793
-0.0225685785536,-0.131009975062
-0.0223441396509,-0.120710723192
-0.0220822942643,-0.095349127182
-0.00682044887781,-0.0648628428928
0.00345386533666,-0.0443765586035
0.0187032418953,-0.0239401496259
0.0289152119701,-0.018578553616
0.0241396508728,-0.00826683291771
0.0294014962594,-0.00291770573566
0.02963840399,0.0024812967581
0.00482543640898,0.00290523690773
-0.01,-0.00665835411471
-0.0248379052369,-0.0112967581047
-0.0197007481297,-0.0209102244389
-0.0345386533666,-0.0154364089776
-0.0193890274314,0.00513715710723
-0.0342019950125,0.0307605985037
-0.0289650872818,0.0463466334165
-0.0287281795511,0.0368952618454
-0.0385286783042,0.0173316708229
-0.0283665835411,0.0127930174564
-0.0382793017456,0.00826683291771
-0.0332418952618,0.013753117207
-0.0381421446384,0.00930174563591
-0.038042394015,0.00481296758105
-0.0379925187032,-0.00466334164589
-0.0379301745636,0.000922693266833
-0.0228802992519,0.0165087281796
-0.0227930174564,0.0321197007481
-0.0177306733167,0.0376932668329
-0.0226932668329,0.0332044887781
-0.0226184538653,0.0236533665835
-0.0325810473815,0.00910224438903
-0.0325311720698,0.0145635910224
-0.0375187032419,0.0200872817955
-0.0425311720698,0.000660847880299
-0.0375187032419,0.00623441396509
-0.0224688279302,0.00175810473815
-0.0223690773067,0.017319201995
-0.0172319201995,0.0279426433915
-0.0120947630923,0.0435910224439
-0.011957605985,0.0342518703242
-0.0118329177057,0.0348379052369
-0.0117705735661,0.0153740648379
-0.0116957605985,0.0258603491272
-0.0116708229426,0.0263216957606
-0.0166209476309,0.0217705735661
-0.0365710723192,0.0272319201995
-0.0414962593516,0.0176433915212
-0.0513965087282,0.0180548628429
-0.0512219451372,0.00849127182045
-0.0459600997506,0.0238902743142
-0.0306733167082,0.0392144638404
-0.0153366583541,0.039463840399
-0.0100249376559,0.0246758104738
-0.00473815461347,0.00977556109726
-0.0144887780549,0.0148628428928
-0.019289276808,0.0299251870324
-0.0190897755611,0.0299501246883
-0.0239526184539,0.0300374064838
-0.0237905236908,0.0101246882793
-0.0236408977556,-0.0047506234414
-0.0234912718204,0.000386533665835
-0.0133416458853,0.0205236907731
-0.00824189526185,0.0306483790524
0.00682044887781,0.0407605985037
0.00680798004988,0.0458603491272
-0.0182793017456,0.0359975062344
-0.0234039900249,0.0311471321696
-0.0286034912718,0.0362718204489
-0.0288403990025,0.0363840399002
-0.0340399002494,0.0314463840399
-0.0392394014963,0.0114962593516
-0.0294513715711,0.00659600997506
-0.0296758104738,0.0316708229426
-0.0148877805486,0.0317456359102
-0.0051246882793,0.0468453865337
-0.000423940149626,0.0569201995012
0.0142643391521,0.0519950124688
0.013927680798,0.0470448877805
0.018578553616,0.0420698254364
0.0382543640898,0.0621072319202
0.0329177057357,0.0771197007481
0.0226059850374,0.0721072319202
0.012319201995,0.0771197007481
0.0170698254364,0.0671695760599
0.0368453865337,0.0722319201995
0.0365710723192,0.0723067331671
0.061246882793,0.0873441396509
0.090897755611,0.102344139651
0.125561097257,0.0873441396509
0.13529925187,0.0623316708229
0.165187032419,0.0573441396509
0.16529925187,0.0423441396509
0.160773067332,0.0272942643392
0.151708229426,0.0321945137157
0.143204488778,0.0120822942643
0.125386533666,0.00200748129676
0.123216957606,0.00713216957606
0.131620947631,0.0225810473815
0.11542394015,0.0583042394015
0.109364089776,0.0443266832918
0.108167082294,0.0306608478803
0.0965336658354,0.0171571072319
0.0742518703242,-0.00123441396509
0.0412094763092,0.00528678304239
0.0274189526185,0.0166708229426
0.0129675810474,0.0177182044888
-0.00699501246883,0.0233665835411
-0.0122443890274,0.0136783042394
-0.0276433915212,0.00870324189526
-0.0479800498753,0.013578553616
-0.0532543640898,0.028391521197
-0.0784912718204,0.0283167082294
-0.0736907730673,0.0282917705736
-0.0739152119701,0.0183167082294
-0.0542019950125,0.0133541147132
-0.0545386533666,0.00835411471322
-0.0499501246883,0.00836658354115
-0.06036159601,0.0184039900249
-0.0758603491272,0.0184538653367
-0.0813466334165,0.0135037406484
-0.0818578553616,0.00851620947631
-0.0723316708229,0.013566084788
-0.0678304239401,0.023566084788
-0.0683167082294,0.0435536159601
-0.0688653366584,0.0385411471322
-0.079463840399,0.0184788029925
-0.0951496259352,0.00335411471322
-0.115922693267,-0.0218453865337
-0.126733167082,-0.0220448877805
-0.132518703242,-0.0372069825436
-0.0882917705736,-0.0322817955112
-0.0340773067332,-0.0223441396509
0.0701371571072,-0.0323940149626
0.214413965087,-0.027506234414
0.413653366584,-0.0275935162095
0.647805486284,-0.012680798005
0.916945137157,0.0122817955112
1.17605985037,0.0722319201995
1.40512468828,0.182144638404
1.55413965087,0.326982543641
1.57820448878,0.461857855362
1.45726932668,0.601758104738
1.23134663342,0.661733167082
0.930473815461,0.651770573566
0.599688279302,0.596795511222
0.308965087282,0.461783042394
0.0883167082294,0.311758104738
-0.0571945137157,0.156795511222
-0.137680798005,0.0117456359102
-0.168179551122,-0.0732917705736
-0.153653366584,-0.118379052369
-0.129139650873,-0.098566084788
-0.0996259351621,-0.0687406483791
-0.100037406484,-0.0188279301746
-0.115386533666,0.0161346633416
-0.125673316708,0.0311346633416
-0.125910224439,0.0161346633416
-0.13614713217,0.0110847880299
-0.141421446384,0.000997506234414
-0.146670822943,0.0109226932668
-0.166882793017,0.00586034912718
-0.157007481297,0.0157356608479
-0.16716957606,-0.00438902743142
-0.162344139651,-0.0195635910224
-0.172581047382,-0.0247630922693
-0.17283042394,-0.0249376558603
-0.193092269327,-0.0100623441397
-0.203316708229,-0.0151995012469
-0.203466334165,-0.0253241895262
-0.19855361596,-0.0254114713217
-0.183591022444,-0.0255236907731
-0.178591022444,-0.00559850374065
-0.158640897756,-0.00068578553616
-0.163790523691,-0.0158603491272
-0.164164588529,-0.0260847880299
-0.144837905237,-0.0413715710723
-0.150922693267,-0.0466334164589
-0.157605985037,-0.0418079800499
-0.184925187032,-0.0219201995012
-0.192880299252,-0.0170947630923
-0.191408977556,-0.022493765586
-0.185386533666,-0.0231920199501
-0.174588528678,-0.0341895261845
-0.173715710723,-0.0405236907731
-0.157431421446,-0.0222069825436
-0.165523690773,-0.0240648379052
-0.172793017456,-0.030885286783
-0.184201995012,-0.047506234414
-0.174962593516,-0.0737157107232
-0.180236907731,-0.0794513715711
-0.175236907731,-0.0847880299252
-0.170112219451,-0.074812967581
-0.174950124688,-0.0647007481297
-0.184788029925,-0.0596134663342
-0.17463840399,-0.0595760598504
-0.174488778055,-0.0546259351621
-0.164376558603,-0.0547630922693
-0.154251870324,-0.0350249376559
-0.149039900249,-0.0403241895262
-0.143765586035,-0.0656109725686
-0.148453865337,-0.0807980049875
-0.143104738155,-0.115847880299
-0.137718204489,-0.115798004988
-0.127294264339,-0.110735660848
-0.13187032419,-0.0906234413965
-0.136408977556,-0.0804738154613
-0.150922693267,-0.0902743142145
-0.140461346633,-0.0950748129676
-0.135,-0.0998503740648
-0.129588528678,-0.104675810474
-0.124201995012,-0.0895386533666
-0.113865336658,-0.114426433915
-0.113528678304,-0.139326683292
-0.108216957606,-0.164177057357
-0.117842892768,-0.168965087282
-0.127543640898,-0.158703241895
-0.127219451372,-0.153379052369
-0.121895261845,-0.128067331671
-0.111583541147,-0.1327680798
-0.0912219451372,-0.142493765586
-0.0809226932668,-0.142219451372
-0.0856359102244,-0.151982543641
-0.0803740648379,-0.141770573566
-0.0751122194514,-0.146620947631
-0.0848628428928,-0.161421446384
-0.0896009975062,-0.161221945137
-0.0993017456359,-0.170985037406
-0.0790149625935,-0.165710723192
-0.0836783042394,-0.150399002494
-0.0783416458853,-0.13006234414
