0,1
-0.0486783042394,0.0324688279302
-0.0335286783042,0.0324563591022
-0.0334164588529,0.032506234414
-0.0132917705736,0.0426309226933
-0.0231920199501,0.0327680798005
-0.028029925187,0.0229426433915
-0.0178927680798,0.0180922693267
-0.00280548628429,0.0232418952618
-0.00274314214464,0.0434164588529
0.00225685785536,0.0585536159601
-0.00278054862843,0.0536284289277
0.00718204488778,0.0436783042394
0.00211970074813,0.0187281795511
0.0170074812968,0.0337406483791
0.0218329177057,0.0537905236908
0.0265586034913,0.0639027431421
0.0213092269327,0.0890274314214
0.0260847880299,0.0891645885287
0.0259725685786,0.0843266832918
0.0409102244389,0.0844887780549
0.0658603491272,0.0996134663342
0.0807730673317,0.109738154613
0.100648379052,0.114837905237
0.105461346633,0.109825436409
0.115137157107,0.089812967581
0.119788029925,0.0747256857855
0.124501246883,0.0796882793017
0.134314214464,0.0797256857855
0.149326683292,0.0748004987531
0.149688279302,0.0498877805486
0.140473815461,0.0299376558603
0.14687032419,0.0399750623441
0.148927680798,0.0500124688279
0.151683291771,0.0601246882793
0.130049875312,0.0754364089776
0.11385286783,0.0660099750623
0.112855361596,0.0468079800499
0.096783042394,0.0379675810474
0.0802743142145,0.0194513715711
0.0531296758105,0.0311596009975
0.0501371571072,0.0478054862843
0.0462718204489,0.0542269326683
0.0517705735661,0.0452743142145
0.0268079800499,0.065885286783
0.0115960099751,0.0711346633416
-0.00375311720698,0.091072319202
-0.014102244389,0.0608354114713
-0.0344389027431,0.0505860349127
-0.0297381546135,0.0353865336658
-0.0450249376559,0.00527431421446
-0.0453241895262,0.0102867830424
-0.0506608478803,0.0153865336658
-0.071072319202,0.0204613466334
-0.0715461346633,0.025536159601
-0.0470822942643,0.0155610972569
-0.0476433915212,0.0205112219451
-0.028216957606,0.0304738154613
-0.0338403990025,0.0454239401496
-0.049463840399,0.04536159601
-0.0451371571072,0.0402618453865
-0.0759226932668,0.0151246882793
-0.0766957605985,0.0100498753117
-0.0875311720698,1.24688279302e-05
-0.0883665835411,0.00506234413965
-0.114201995012,-0.00488778054863
-0.100012468828,0.000162094763092
-0.0607855361596,-0.0047506234414
0.0134788029925,-0.00468827930175
0.137718204489,0.01036159601
0.302019950125,0.0304114713217
0.496334164589,0.0104114713217
0.740673316708,0.000423940149626
0.995037406484,0.0104114713217
1.24436408978,0.0603990024938
1.45880299252,0.160374064838
1.6033042394,0.280374064838
1.62290523691,0.410399002494
1.51258104738,0.500486284289
1.27730673317,0.575511221945
0.962032418953,0.565598503741
0.621795511222,0.515673316708
0.316583541147,0.400748129676
0.0663466334165,0.255748129676
-0.0838528678304,0.0956982543641
-0.159052369077,-0.0443640897756
-0.174226932668,-0.124413965087
-0.169376558603,-0.124426433915
-0.129451371571,-0.0794513715711
-0.0944887780549,-0.029463840399
-0.0845511221945,0.000573566084788
-0.0895885286783,0.0156234413965
-0.0846009975062,0.03072319202
-0.0946134663342,0.0107730673317
-0.114650872818,0.0207855361596
-0.139688279302,0.0106982543641
-0.15970074813,0.000610972568579
-0.169750623441,-0.00457605985037
-0.169788029925,-0.029650872818
-0.169750623441,-0.0146633416459
-0.17470074813,-0.00467581047382
-0.17970074813,0.000286783042394
-0.184825436409,0.00521197007481
-0.195199501247,-0.0148379052369
-0.175910224439,0.0051246882793
-0.167119700748,0.00514962593516
-0.158927680798,0.0251496259352
-0.1613840399,0.0150498753117
-0.164551122195,0.00973815461347
-0.168354114713,-0.0157980049875
-0.192481296758,-0.0266708229426
-0.206620947631,-0.0378304239401
-0.225461346633,-0.03927680798
-0.233665835411,-0.0309476309227
-0.221134663342,-0.0426433915212
-0.197730673317,-0.039114713217
-0.19355361596,-0.0252369077307
-0.183827930175,-0.0159600997506
-0.188690773067,-0.0112967581047
-0.203366583541,-0.0163840399002
-0.198017456359,-0.0313341645885
-0.197755610973,-0.0363591022444
-0.192593516209,-0.051421446384
-0.18253117207,-0.0465087281796
-0.187456359102,-0.0516957605985
-0.197394014963,-0.0569326683292
-0.202244389027,-0.0721072319202
-0.191920199501,-0.0722568578554
-0.191496259352,-0.0672817955112
-0.180997506234,-0.0422693266833
-0.165498753117,-0.052319201995
-0.15006234414,-0.0523815461347
-0.12963840399,-0.0574688279302
-0.12921446384,-0.0875685785536
-0.138765586035,-0.0826433915212
-0.148266832918,-0.0926184538653
-0.152743142145,-0.0825436408978
-0.157132169576,-0.0923815461347
-0.161483790524,-0.0871945137157
-0.145822942643,-0.101995012469
-0.130124688279,-0.101783042394
-0.0994139650873,-0.0965461346633
-0.0887032418953,-0.0863216957606
-0.0830049875312,-0.101134663342
-0.0873690773067,-0.115997506234
-0.106795511222,-0.125872817955
-0.126284289277,-0.135685785536
-0.120773067332,-0.125448877805
-0.130286783042,-0.120174563591
-0.124825436409,-0.124875311721
-0.119314214464,-0.139463840399
-0.103802992519,-0.159039900249
-0.0832793017456,-0.148603491272
-0.0677556109726,-0.143179551122
-0.0572319201995,-0.132780548628
-0.0466832917706,-0.132431421446
-0.0461596009975,-0.142057356608
-0.0456608478803,-0.151733167082
-0.055187032419,-0.166408977556
-0.0747755610973,-0.141097256858
-0.0843765586035,-0.150710723192
-0.0889526184539,-0.150374064838
-0.0884788029925,-0.144962593516
-0.0879800498753,-0.134551122195
-0.0724688279302,-0.124164588529
-0.061957605985,-0.113802992519
-0.0464962593516,-0.128466334165
-0.051072319202,-0.13312967581
-0.0456608478803,-0.142793017456
-0.0452493765586,-0.132481296758
-0.0398628428928,-0.122157107232
-0.0494513715711,-0.0967955112219
-0.0540897755611,-0.081421446384
-0.038753117207,-0.0759725685786
-0.0284039900249,-0.0754738154613
-0.0129925187032,-0.0649501246883
-0.00760598503741,-0.0444014962594
-0.00220698254364,-0.0138653366584
-0.0018578553616,-0.0183541147132
-0.00149625935162,-0.00783042394015
-0.00117206982544,-0.00234413965087
-0.0158603491272,0.00315461346633
-0.0206109725686,0.0186783042394
-0.0203241895262,0.0292144638404
-0.0250249376559,0.0147381546135
-0.0546882793017,0.0103241895262
-0.0393516209476,0.0109351620948
-0.0190274314214,0.0216209476309
-0.0186907730673,0.0372817955112
-0.0133042394015,0.0579052369077
-0.00796758104738,0.0584538653367
-0.0126433915212,0.0289401496259
-0.0173815461347,0.0244139650873
-0.0221321695761,0.0199127182045
-0.0468952618454,0.0254239401496
-0.0316458852868,0.0109725685786
-0.0463840399002,0.00652119700748
-0.056072319202,0.0120822942643
-0.0557730673317,0.012680798005
-0.0454987531172,0.0283291770574
-0.0251995012469,0.0440024937656
-0.0299251870324,0.0596882793017
-0.0246882793017,0.0452992518703
-0.0244887780549,0.0258229426434
-0.0293017456359,0.0113216957606
-0.039102244389,0.0218204488778
-0.0589152119701,0.0272817955112
-0.0487655860349,0.0327431421446
-0.0486034912718,0.0131670822943
-0.0434413965087,-0.0014463840399
-0.0332418952618,-0.00105985037406
-0.0280548628429,0.0293890274314
-0.0328678304239,0.034812967581
-0.0226558603491,0.035174563591
-0.0124314214464,0.0354364089776
-0.0122194513716,0.0206483790524
0.00799251870324,0.0158728179551
0.00315461346633,0.0211097256858
-0.00170822942643,0.0213965087282
-0.0215087281796,0.00672069825436
-0.0313092269327,-0.0030174563591
-0.0260349127182,-0.00274314214464
-0.0156608478803,0.00755610972569
-0.0151995012469,0.0129052369077
-0.00468827930175,0.0382917705736
0.0108354114713,0.0286783042394
0.0163840399002,0.0340149625935
0.00193266832918,0.0242394014963
0.00746882793017,0.0194264339152
0.0080174563591,0.0346134663342
-0.00135910224439,0.039812967581
-0.00073566084788,0.0349625935162
-0.0101620947631,0.0100997506234
-0.00957605985037,0.0052493765586
-0.0239775561097,0.000411471321696
-0.0233291770574,0.0105860349127
-0.00770573566085,0.0158229426434
-0.00213216957606,0.036072319202
0.0034289276808,0.021246882793
0.0139526184539,0.0164089775561
0.0144014962594,0.00648379052369
0.0147506234414,0.0215336658354
0.0200498753117,0.0266458852868
0.00534912718204,0.0118079800499
0.000660847880299,0.0119825436409
-0.00411471321696,-0.00278054862843
0.00612219451372,0.0174688279302
0.00135910224439,0.0377057356608
0.0115960099751,0.0329177057357
0.0168079800499,0.0330922693267
0.0270074812968,0.0332668329177
0.0521321695761,0.0333541147132
0.0622568578554,0.0434039900249
0.0673316708229,0.0634289276808
0.0673316708229,0.0634538653367
0.0773316708229,0.0535162094763
0.0723940149626,0.0535910224439
0.0774438902743,0.0387032418953
0.0925561097257,0.0588279301746
0.107668329177,0.0639775561097
0.122755610973,0.069114713217
0.15289276808,0.0742518703242
0.162942643392,0.0543516209476
0.187980049875,0.0344139650873
0.183004987531,0.0194014962594
0.178042394015,0.0244139650873
0.173004987531,0.0293890274314
0.162980049875,0.00942643391521
0.143042394015,0.00453865336658
0.143266832918,0.00462593516209
0.133815461347,0.0097506234414
0.124763092269,0.0199127182045
0.116234413965,0.01
0.103354114713,0.00508728179551
0.11108478803,0.0102119700748
0.0844264339152,0.0104239401496
0.0733042394015,0.0208603491272
0.0425187032419,0.0165835411471
0.0167955112219,0.0125810473815
0.00579800498753,0.00881546134663
0.00425187032419,-0.00972568578554
-0.00807980049875,-0.00324189526185
-0.0112842892768,-0.00189526184539
-0.0152743142145,0.0191895261845
-0.0348503740648,0.0249002493766
-0.0247256857855,0.010187032419
-0.0247755610973,0.00513715710723
-0.0348753117207,-0.00508728179551
-0.045,0.0146259351621
-0.0650872817955,0.0144264339152
-0.0601496259352,0.0143142144638
-0.0702244389027,-0.00073566084788
-0.0802992518703,-0.0257605985037
-0.0654114713217,-0.01572319202
-0.0555112219451,-0.00573566084788
-0.0556982543641,0.00426433915212
-0.0659226932668,-0.000785536159601
-0.066246882793,0.00916458852868
-0.0616209476309,-0.0258728179551
-0.0820448877805,-0.0359975062344
-0.0725311720698,-0.036072319202
-0.0431296758105,-0.0161720698254
0.00120947630923,-0.0112842892768
0.105536159601,-0.0263466334165
0.249812967581,-0.0413965087282
0.449189526185,-0.0563216957606
0.688640897756,-0.0512094763092
0.948167082294,-0.0110099750623
1.22770573566,0.0491396508728
1.46225685786,0.144251870324
1.61682044888,0.264301745636
1.64130922693,0.39933915212
1.52577306733,0.52433915212
1.28019950125,0.604326683292
0.98463840399,0.604326683292
0.634177057357,0.519289276808
0.323827930175,0.379264339152
0.093566084788,0.22433915212
-0.0766334164589,0.0744513715711
-0.151770573566,-0.0404114713217
-0.161882793017,-0.115336658354
-0.131932668329,-0.115336658354
-0.086957605985,-0.090349127182
-0.0569326683292,-0.0553990024938
-0.0518827930175,-0.00538653366584
-0.0568329177057,0.0146134663342
-0.0918079800499,0.0146134663342
-0.136820448878,-0.00544887780549
-0.171795511222,-0.0455112219451
-0.191770573566,-0.0505610972569
-0.191708229426,-0.0305112219451
-0.176620947631,-0.0204613466334
-0.171458852868,-0.0254114713217
-0.156221945137,-0.0203865336658
-0.160985037406,-0.0104488778055
-0.165735660848,-0.0205486284289
-0.160523690773,-0.0156109725686
-0.175336658354,-0.0206608478803
-0.185199501247,-0.0307481296758
-0.18006234414,-0.0408229426434
-0.189850374065,-0.0509476309227
-0.194551122195,-0.0510099750623
-0.204152119701,-0.0460473815461
-0.203740648379,-0.0259975062344
-0.193391521197,-0.0159850374065
-0.183229426434,-0.0260598503741
-0.158316708229,-0.0261845386534
-0.163765586035,-0.0263466334165
-0.159625935162,-0.026433915212
-0.155985037406,-0.0264463840399
-0.172955112219,-0.0415087281796
-0.180536159601,-0.0566957605985
-0.193653366584,-0.0721820448878
-0.197219451372,-0.0729052369077
-0.205997506234,-0.0588902743142
-0.204725685786,-0.0401371571072
-0.208079800499,-0.0565960099751
-0.210897755611,-0.0582543640898
-0.193004987531,-0.0699750623441
-0.189389027431,-0.066608478803
-0.185149625935,-0.0729301745636
-0.185411471322,-0.053927680798
-0.185336658354,-0.074463840399
-0.185024937656,-0.084650872818
-0.18963840399,-0.0946259351621
-0.184226932668,-0.0845511221945
-0.173815461347,-0.084463840399
-0.173391521197,-0.0645012468828
-0.172980049875,-0.0696134663342
-0.182556109726,-0.069825436409
-0.172094763092,-0.0850623441397
-0.171583541147,-0.0952992518703
-0.16102244389,-0.0954987531172
-0.15042394015,-0.0906234413965
-0.154763092269,-0.100698254364
-0.154077306733,-0.115735660848
-0.153379052369,-0.130748129676
-0.142643391521,-0.145710723192
-0.136882793017,-0.140598503741
-0.136097256858,-0.140511221945
-0.12529925187,-0.125374064838
-0.124501246883,-0.130199501247
-0.108765586035,-0.14
-0.118054862843,-0.154800498753
-0.117394014963,-0.144625935162
-0.111733167082,-0.144551122195
-0.111159600998,-0.154476309227
-0.105548628429,-0.174376558603
-0.109875311721,-0.189177057357
-0.124164588529,-0.178902743142
-0.103441396509,-0.168603491272
-0.102705735661,-0.143329177057
-0.0919825436409,-0.138154613466
-0.0962718204489,-0.142980049875
-0.0904987531172,-0.152780548628
-0.079812967581,-0.167568578554
-0.0841271820449,-0.147356608479
-0.0934912718204,-0.147194513716
-0.0929177057357,-0.152057356608
-0.0873566084788,-0.166932668329
-0.0967705735661,-0.181720698254
-0.0961596009975,-0.186421446384
-0.0955486284289,-0.171072319202
-0.0648877805486,-0.135748129676
-0.0591895261845,-0.125511221945
-0.0434912718204,-0.115336658354
-0.0478054862843,-0.110099750623
-0.0371695760599,-0.119825436409
-0.0315586034913,-0.109551122195
-0.0159600997506,-0.0893266832918
-0.0303990024938,-0.0691770573566
-0.019812967581,-0.0790149625935
-0.0242394014963,-0.0737780548628
-0.0237032418953,-0.0584538653367
-0.0330798004988,-0.0431172069825
-0.0124563591022,-0.0077680798005
-0.0068578553616,0.00755610972569
0.0187905236908,0.012855361596
0.0244389027431,0.0181670822943
0.00502493765586,0.00347880299252
0.00554862842893,0.0237655860349
-0.00894014962594,0.0190149625935
-0.0234289276808,0.0242518703242
-0.0428678304239,0.0145012468828
-0.0423067331671,0.00476309226933
-0.0417082294264,0.000149625935162
-0.0410847880299,0.000561097256858
-0.0354738154613,0.0310349127182
-0.0249127182045,0.0514837905237
-0.0193765586035,0.0518952618454
-0.0338279301746,0.042319201995
-0.0333291770574,0.0377306733167
-0.0228179551122,0.0231296758105
-0.0223690773067,0.0284912718204
-0.0269451371571,0.0338154613466
-0.0465710723192,0.039114713217
-0.0611720698254,0.0294513715711
-0.06072319202,0.0148753117207
-0.0602618453865,0.0253990024938
-0.0647381546135,0.0209476309227
-0.0541770573566,0.0364713216958
-0.0436159600998,0.0569326683292
-0.0280798004988,0.0473940149626
-0.0325685785536,0.032855361596
-0.0321197007481,0.0182543640898
-0.0216708229426,0.0136533665835
-0.0412593516209,0.0140149625935
-0.0558354114713,0.0393765586035
-0.0654364089776,0.0197880299252
-0.0749875311721,0.0252119700748
-0.0645137157107,0.0106733167082
-0.0490149625935,0.0161720698254
-0.0484164588529,0.0366708229426
-0.0327805486284,0.052144638404
-0.0221321695761,0.0575935162095
-0.0215087281796,0.048029925187
-0.0209102244389,0.0334164588529
-0.0153740648379,0.0238029925187
-0.0198503740648,0.0291271820449
-0.0243391521197,0.0344763092269
-0.0287905236908,0.0398004987531
-0.0432418952618,0.0350997506234
-0.0376059850374,0.0253740648379
-0.0319201995012,0.0356234413965
-0.0361720698254,0.0558104738155
-0.0403865336658,0.0509725685786
-0.03463840399,0.0560847880299
-0.0238902743142,0.0361596009975
-0.0181296758105,0.00117206982544
-0.00744389027431,0.0111596009975
-0.011783042394,0.0111346633416
-0.00615960099751,0.0161221945137
-0.0205735660848,0.0261097256858
-0.0350249376559,0.0160473815461
-0.0244763092269,0.0109850374065
-0.0188902743142,0.0259850374065
-0.0183665835411,0.0360349127182
-0.00785536159601,0.0411221945137
-0.0124189526185,0.0611720698254
-0.0120199501247,0.0561720698254
-0.0266458852868,0.0411720698254
-0.0262967581047,0.0210847880299
-0.0159975062344,0.0260224438903
-0.00573566084788,0.0159725685786
-0.0204862842893,0.0209850374065
-0.0502867830424,0.0309725685786
-0.0550872817955,0.0259725685786
-0.0498628428928,0.0159725685786
-0.03463840399,0.0409600997506
-0.00943890274314,0.0510224438903
0.0156982543641,0.0660473815461
0.0308478802993,0.0709975062344
0.0259850374065,0.075885286783
0.0460847880299,0.0656982543641
0.0312094763092,0.0655486284289
0.0463466334165,0.0704738154613
0.0364962593516,0.0804613466334
0.0566209476309,0.0704488778055
0.0667581047382,0.0604613466334
0.0868952618454,0.0703740648379
0.111982543641,0.0652992518703
0.152157107232,0.0852369077307
0.172331670823,0.0952244389027
0.172618453865,0.0802119700748
0.183142144638,0.0551371571072
0.164039900249,0.0249875311721
0.145436408978,0.00981296758105
0.127456359102,-0.00533665835411
0.125137157107,0.00465087281796
0.123528678304,0.0147880299252
0.122493765586,0.0151246882793
0.136857855362,0.0107730673317
0.141284289277,0.016783042394
0.145411471322,0.0231296758105
0.138940149626,0.0296758104738
0.116720698254,0.0361720698254
0.0986034912718,0.0374064837905
0.0697506234414,0.0132793017456
0.0552867830424,0.00879052369077
0.0254114713217,0.003927680798
0.000386533665835,0.0238154613466
-0.019650872818,0.0385411471322
-0.0296009975062,0.0382543640898
-0.0444513715711,0.0380049875312
-0.0442144638404,0.0178802992519
-0.0489401496259,0.0178678304239
-0.0487281795511,0.0129426433915
-0.0385411471322,0.0229925187032
-0.0435162094763,0.0229675810474
-0.0436034912718,0.0227930174564
-0.0487780548628,0.00759351620948
-0.0439401496259,-0.00250623441397
-0.0590897755611,-0.00253117206983
-0.0692518703242,0.00241895261845
-0.0693516209476,0.00738154613466
-0.0844139650873,0.0273690773067
-0.0794264339152,0.00231920199501
-0.0743890274314,0.00730673316708
-0.0593890274314,0.0122443890274
-0.0644513715711,0.0120947630923
-0.0796134663342,0.0168453865337
-0.0998503740648,-0.00847880299252
-0.110162094763,-0.0138029925187
-0.105548628429,-0.0390773067332
-0.0759725685786,-0.039289276808
-0.00640897755611,-0.0194264339152
0.0731920199501,-0.00957605985037
0.19789276808,-0.00470074812968
0.367593516209,-0.0247880299252
0.557281795511,-0.0498503740648
0.806945137157,-0.0349251870324
1.05650872818,-6.23441396509e-05
1.28603491272,0.0997506234414
1.48554862843,0.204513715711
1.58503740648,0.314289276808
1.57450124688,0.429139650873
1.43400249377,0.514027431421
1.2185286783,0.583902743142
0.933092269327,0.598790523691
0.632730673317,0.548653366584
0.362443890274,0.44855361596
0.152194513716,0.30849127182
0.0119950124688,0.123453865337
-0.0831421446384,-0.0116832917706
-0.113216957606,-0.0868703241895
-0.108266832918,-0.0971197007481
-0.0982917705736,-0.092319201995
-0.0882418952618,-0.0574688279302
-0.0881670822943,-0.0325935162095
-0.0880548628429,-0.00268079800499
-0.102905236908,0.0172319201995
-0.117693266833,0.0271695760599
-0.14746882793,0.0370822942643
-0.167182044888,0.0220074812968
-0.17687032419,0.00693266832918
-0.176546134663,-0.00821695760599
-0.166234413965,-0.00846633416459
-0.175910224439,-0.00876558603491
-0.180598503741,-0.00905236907731
-0.190274314214,-0.0043391521197
-0.194950124688,-0.01463840399
-0.194613466334,-0.0248877805486
-0.184226932668,-0.0301371571072
-0.178815461347,-0.0153990024938
-0.158391521197,0.00438902743142
-0.162967581047,0.0291770573566
-0.157493765586,0.0240024937656
-0.157032418953,0.0137655860349
-0.161583541147,-0.0165211970075
-0.176197007481,-0.0318578553616
-0.175997506234,-0.0221695760599
-0.175985037406,-0.0124189526185
-0.176334164589,-0.00260598503741
-0.177132169576,-0.00775561097257
-0.208478802993,-0.0228802992519
-0.200448877805,-0.0230548628429
-0.188079800499,-0.0383790523691
-0.186309226933,-0.0239401496259
-0.174950124688,-0.00985037406484
-0.173753117207,-0.00613466334165
-0.177356608479,-0.0278054862843
-0.170511221945,-0.0497256857855
-0.178017456359,-0.0567581047382
-0.194763092269,-0.0636159600998
-0.210710723192,-0.0501246882793
-0.215947630923,-0.0412094763092
-0.220685785536,-0.0568703241895
-0.220112219451,-0.0670822942643
-0.199413965087,-0.0620448877805
-0.193703241895,-0.0618827930175
-0.173029925187,-0.0467206982544
-0.172493765586,-0.0516458852868
-0.162007481297,-0.0517331670823
-0.151521197007,-0.0818952618454
-0.176009975062,-0.0870199501247
-0.165448877805,-0.0920947630923
-0.154750623441,-0.0970324189526
-0.153952618454,-0.0919201995012
-0.158054862843,-0.0917955112219
-0.137119700748,-0.0916583541147
-0.131209476309,-0.0964962593516
-0.135324189526,-0.0912842892768
-0.129501246883,-0.0860473815461
-0.138728179551,-0.0808728179551
-0.138017456359,-0.0807356608479
-0.142331670823,-0.105673316708
-0.136645885287,-0.125573566085
-0.125960099751,-0.145436408978
-0.120224438903,-0.145236907731
-0.104488778055,-0.135
-0.108715710723,-0.124788029925
-0.0979675810474,-0.114600997506
-0.102206982544,-0.114401496259
-0.0864089775561,-0.124201995012
-0.0756234413965,-0.114014962594
-0.0698503740648,-0.108827930175
-0.0791521197007,-0.113640897756
-0.0835286783042,-0.14349127182
-0.0829301745636,-0.163366583541
-0.102331670823,-0.188179551122
-0.10674563591,-0.182992518703
-0.106134663342,-0.167755610973
-0.0954613466334,-0.152493765586
-0.0797256857855,-0.147194513716
-0.0689650872818,-0.136907730673
-0.073216957606,-0.136596009975
-0.0624812967581,-0.136321695761
-0.0568204488778,-0.11608478803
-0.0512219451372,-0.115822942643
-0.0606608478803,-0.125623441397
-0.0651496259352,-0.14042394015
-0.0646134663342,-0.155236907731
-0.0790523690773,-0.155012468828
-0.0835162094763,-0.134750623441
-0.0829426433915,-0.104451371571
-0.072319201995,-0.0990773067332
-0.0516832917706,-0.0887032418953
-0.0310224438903,-0.0883416458853
-0.0203366583541,-0.0780049875312
0.000336658354115,-0.0676932668329
0.000985037406484,-0.0523690773067
0.0165960099751,-0.0370448877805
0.012144638404,-0.0217206982544
0.00265586034913,-0.0313715710723
0.00311720698254,-0.0259725685786
-0.016433915212,-0.0305112219451
-0.00599750623441,-0.00508728179551
-0.010536159601,0.0153865336658
-0.0250124688279,0.0208229426434
-0.0144887780549,0.0262094763092
-0.0039650872818,0.031608478803
0.00154613466334,0.0320324189526
0.00706982543641,0.0424189526185
0.0125436408978,0.0528428927681
-0.00205735660848,0.0483042394015
-0.0116583541147,0.0287905236908
-0.0162967581047,0.00931421446384
-0.0259476309227,0.00485037406484
-0.0305486284289,0.01536159601
-0.0451246882793,0.0309102244389
-0.049650872818,0.0264837905237
-0.0442144638404,0.0420448877805
-0.0388029925187,0.0375436408978
-0.0283541147132,0.0330049875312
-0.0279177057357,0.0284289276808
-0.0275561097257,0.0438403990025
-0.0172568578554,0.0242643391521
-0.0269950124688,0.0197256857855
-0.0367082294264,0.0151620947631
-0.0363965087282,0.00563591022444
-0.0310349127182,0.0211221945137
-0.0305735660848,0.0516832917706
-0.0350748129676,0.0622693266833
-0.0295885286783,0.0679052369077
-0.0240773067332,0.0635162094763
-0.0186658354115,0.0440399002494
-0.0232294264339,0.029463840399
-0.0228304239401,0.0248628428928
-0.0274064837905,0.0251995012469
-0.0220199501247,0.030536159601
-0.0215710723192,0.015885286783
-0.0460598503741,0.0112344139651
-0.0154613466334,0.011608478803
-0.0147880299252,0.016970074813
-0.00410224438903,0.0272568578554
-0.00837905236908,0.0424812967581
-0.00770573566085,0.0376184538653
-0.0170822942643,0.0327057356608
-0.0215211970075,0.0177057356608
-0.0259600997506,0.0177057356608
-0.0204488778055,0.0326932668329
-0.0249251870324,0.0277057356608
-0.0243765586035,0.0177306733167
-0.0187905236908,0.00780548628429
-0.0231670822943,0.00788029925187
-0.0175311720698,0.0279675810474
-0.00693266832918,0.048042394015
-0.0213591022444,0.0531296758105
-0.00588528678304,0.043216957606
-0.0104862842893,0.0432418952618
-0.0251995012469,0.0282294264339
-0.03,0.0182044887781
-0.0348503740648,0.0232294264339
-0.0297256857855,0.0332793017456
-0.0346259351621,0.0183541147132
-0.0445386533666,0.0234538653367
-0.0244014962594,0.00851620947631
-0.0492518703242,0.0185536159601
-0.0290399002494,0.0286284289277
-0.0188403990025,0.0487281795511
-0.00362842892768,0.0538279301746
-0.0084289276808,0.0338403990025
0.00175810473815,0.0138154613466
0.0118827930175,0.0187655860349
0.00193266832918,0.0187157107232
-0.018042394015,0.0187032418953
-0.0430548628429,0.0237780548628
-0.058042394015,0.0138154613466
-0.058029925187,0.0288528678304
-0.0429675810474,0.0539152119701
0.00213216957606,0.0839526184539
0.0222319201995,0.104039900249
0.0473316708229,0.104077306733
0.0673815461347,0.0890897755611
0.0824314214464,0.0840274314214
0.097493765586,0.0639027431421
0.0927182044888,0.0588029925187
0.0780922693267,0.048753117207
0.0737655860349,0.0337655860349
0.0848628428928,0.0237406483791
0.101471321696,0.0286658354115
0.128740648379,0.0386284289277
0.141645885287,0.0436533665835
0.140137157107,0.0489401496259
0.154114713217,0.0444887780549
0.163366583541,0.0303117206983
0.157568578554,0.0364089775561
0.15144638404,0.027680798005
0.139750623441,0.024114713217
0.132331670823,0.0256234413965
0.109152119701,0.0170324189526
0.10029925187,-0.00180798004988
0.080897755611,0.00902743142145
0.0561471321696,0.0293890274314
0.0312094763092,0.0394139650873
0.0162219451372,0.0542144638404
0.0112842892768,0.0439900249377
-0.00861596009975,0.0237780548628
-0.0185162094763,0.0336658354115
-0.0334663341646,0.0135910224439
-0.0584413965087,0.013578553616
-0.0734663341646,-0.0114089775561
-0.0785037406484,-0.0113216957606
-0.0936284289277,-0.0161970074813
-0.0937780548628,-0.011072319202
-0.103965087282,0.00900249376559
-0.0991770573566,0.0340149625935
-0.104364089776,0.0389900249377
-0.0896134663342,0.0189650872818
-0.0899251870324,0.0239027431421
-0.0902743142145,0.0288154613466
-0.0856608478803,0.0236783042394
-0.10608478803,0.0184663341646
-0.101521197007,0.0132418952618
-0.116957605985,-0.0219326683292
-0.117306733167,-0.0120199501247
-0.132693266833,-0.0269825436409
-0.128104738155,-0.0119077306733
-0.118541147132,-0.0118827930175
-0.0990523690773,-0.0069825436409
-0.03963840399,-0.0071072319202
0.0547256857855,-0.0221820448878
0.199027431421,-0.0222319201995
0.388329177057,-0.0322693266833
0.602630922693,-0.047319201995
0.85687032419,-0.0373815461347
1.13119700748,0.00756857855362
1.36557356608,0.12253117207
1.51998753117,0.262568578554
1.58448877805,0.407693266833
1.50906483791,0.547817955112
1.31869077307,0.632855361596
1.05842892768,0.67283042394
0.753216957606,0.617805486284
0.462992518703,0.5127680798
0.182730673317,0.352718204489
-0.00255610972569,0.192630922693
-0.132855361596,0.017493765586
-0.173142144638,-0.0926683291771
-0.173316708229,-0.132780548628
-0.143416458853,-0.112805486284
-0.103416458853,-0.0577556109726
-0.0733541147132,-0.00270573566085
-0.0782543640898,0.0323067331671
-0.0881421446384,0.0322319201995
-0.118117206983,0.0271820448878
-0.153092269327,0.00711970074813
-0.188067331671,0.00203241895262
-0.203029925187,0.00194513715711
-0.213004987531,0.00179551122195
-0.222880299252,-0.0233416458853
-0.212730673317,-0.0234788029925
-0.202593516209,-0.038566084788
-0.197418952618,-0.00862842892768
-0.192244389027,-0.00366583541147
-0.182057356608,0.0162842892768
-0.181857855362,-0.00381546134663
-0.181633416459,-0.018927680798
-0.196408977556,-0.0140523690773
-0.186234413965,-0.00916458852868
-0.196122194514,0.000673316708229
-0.201221945137,0.000523690773067
-0.206583541147,-0.00961346633416
-0.212331670823,-0.0247132169576
-0.208541147132,-0.0147506234414
-0.21036159601,-0.00980049875312
-0.202842892768,-0.00496259351621
-0.190997506234,-0.000399002493766
-0.184713216958,-0.00622194513716
-0.188715710723,-0.022493765586
-0.192718204489,-0.0291645885287
-0.196346633416,-0.0360847880299
-0.214364089776,-0.0282044887781
-0.226521197007,-0.0552369077307
-0.2427680798,-0.0670199501247
-0.23825436409,-0.0933042394015
-0.223179551122,-0.084102244389
-0.212755610973,-0.0694389027431
-0.20216957606,-0.0544264339152
-0.196596009975,-0.049289276808
-0.186134663342,-0.0441645885287
-0.185773067332,-0.0541396508728
-0.180548628429,-0.0642518703242
-0.170374064838,-0.0595012468828
-0.170236907731,-0.0597506234414
-0.18,-0.0849251870324
-0.184650872818,-0.0950997506234
-0.194201995012,-0.105174563591
-0.198640897756,-0.105211970075
-0.198017456359,-0.0901496259352
-0.192344139651,-0.0900997506234
-0.181658354115,-0.0850623441397
-0.170960099751,-0.0900124688279
-0.15029925187,-0.109900249377
-0.124675810474,-0.119812967581
-0.124102244389,-0.124750623441
-0.123640897756,-0.11470074813
-0.128154613466,-0.129588528678
-0.142668329177,-0.134426433915
-0.137219451372,-0.149239401496
-0.126683291771,-0.143990024938
-0.126109725686,-0.153703241895
-0.125536159601,-0.133428927681
-0.119925187032,-0.138154613466
-0.104301745636,-0.162842892768
-0.0937032418953,-0.17753117207
-0.0731670822943,-0.177281795511
-0.0676309226933,-0.172069825436
-0.0771321695761,-0.156895261845
-0.0916583541147,-0.151720698254
-0.111184538653,-0.166433915212
-0.110748129676,-0.176159600998
-0.10029925187,-0.170822942643
-0.104825436409,-0.150523690773
-0.0893266832918,-0.145224438903
-0.0738279301746,-0.134925187032
-0.078391521197,-0.129563591022
-0.0679675810474,-0.149264339152
-0.0725935162095,-0.148990024938
-0.0672568578554,-0.138753117207
-0.0619201995012,-0.13355361596
-0.0765336658354,-0.148279301746
-0.0761471321696,-0.15289276808
-0.0757855361596,-0.167443890274
-0.0654239401496,-0.166995012469
-0.0400498753117,-0.131558603491
-0.0346758104738,-0.0861596009975
-0.0293017456359,-0.0657730673317
-0.018927680798,-0.05036159601
0.00638403990025,-0.0599625935162
0.0016957605985,-0.0545511221945
0.00200748129676,-0.0592019950125
0.00720698254364,-0.0488653366584
-0.00253117206983,-0.0335162094763
-0.00728179551122,-0.0181421446384
-0.0120074812968,-0.0176932668329
-0.0117331670823,-0.0122194513716
-0.011421446384,-0.00674563591022
-0.00612219451372,0.0137281795511
-0.0108354114713,0.0242144638404
0.00438902743142,0.0397132169576
-0.0054114713217,0.0302119700748
-0.00526184538653,0.0206608478803
-0.0201496259352,0.006072319202
-0.0350498753117,0.0114713216958
-0.0499875311721,0.0119077306733
-0.0599251870324,0.0224189526185
-0.069825436409,0.0179800498753
-0.0597132169576,-0.0064463840399
-0.0445261845387,0.0141396508728
-0.0293391521197,0.0247630922693
-0.0191770573566,0.0503241895262
-0.0190274314214,0.0458229426434
-0.0189152119701,0.0363092269327
-0.0238029925187,0.026783042394
-0.0187406483791,-0.0027680798005
-0.0437157107232,0.0127057356608
-0.0486783042394,0.0181421446384
-0.0637281795511,0.013578553616
-0.063753117207,0.00403990024938
-0.068753117207,0.00453865336658
-0.0687281795511,0.0250872817955
-0.0587281795511,0.0305860349127
-0.0487032418953,0.0409850374065
-0.0286658354115,0.0463092269327
-0.0186658354115,0.0365835411471
-0.0187281795511,0.0217955112219
-0.0238778054863,0.0120324189526
-0.0191271820449,0.0172319201995
-0.0243890274314,0.0124314214464
-0.0446134663342,0.0226433915212
-0.0596882793017,0.00791770573566
-0.0797007481297,0.00325436408978
-0.0696009975062,0.00861596009975
-0.0644014962594,0.013927680798
-0.0391271820449,0.0392019950125
-0.0338279301746,0.0493765586035
-0.0135162094763,0.0395261845387
-0.00825436408978,0.0197007481297
-0.00805486284289,0.0148004987531
-0.022855361596,0.00985037406484
-0.0376433915212,0.00988778054863
-0.0423566084788,0.0199875311721
-0.0470573566085,0.0150997506234
-0.0417581047382,0.0152867830424
-0.0514089775561,0.0154987531172
-0.0410099750623,0.0206608478803
-0.0505860349127,0.0357980049875
-0.0351496259352,0.040885286783
-0.0297506234414,0.0259351620948
-0.0243890274314,0.0160224438903
-0.0241396508728,0.0160598503741
-0.0139650872818,0.00608478802993
-0.0138528678304,0.0111097256858
-0.0338154613466,0.0111720698254
-0.0438279301746,0.0263092269327
-0.0588778054863,0.0264962593516
-0.063927680798,0.0266832917706
-0.0540149625935,0.0218204488778
-0.0341271820449,0.031957605985
-0.02427680798,0.0370324189526
-0.0195012468828,0.0470822942643
-0.0297381546135,0.0271072319202
-0.0250623441397,0.0221072319202
-0.0354488778055,0.00708229426434
-0.0308478802993,0.0120822942643
-0.0212219451372,0.0221197007481
-0.0215835411471,0.0372443890274
-0.00694513715711,0.0374314214464
0.0127431421446,0.0526059850374
0.0174314214464,0.0677930174564
0.0271571072319,0.0779426433915
0.0419201995012,0.0980548628429
0.0566334164589,0.0981172069825
0.0613466334165,0.0931795511222
0.0460473815461,0.0781546134663
0.0556982543641,0.0531421446384
0.0702867830424,0.0330673316708
0.0798753117207,0.0430922693267
0.104488778055,0.0631296758105
0.119164588529,0.0582294264339
0.13897755611,0.0483167082294
0.164052369077,0.0483541147132
0.164513715711,0.0533416458853
0.165436408978,0.0532668329177
0.161920199501,0.0431670822943
0.139002493766,0.0381047381546
0.13674563591,0.0181670822943
0.130099750623,0.00347880299252
0.113827930175,-0.0158728179551
0.0927680798005,-0.00986284289277
0.0765087281796,0.00653366583541
0.0447755610973,0.0132044887781
0.0223690773067,0.00997506234414
0.0142269326683,0.0115960099751
0.0153740648379,0.0329301745636
0.0207481296758,0.0588778054863
0.0206733167082,0.0644014962594
0.0152618453865,0.0644389027431
-0.0102493765586,0.0491645885287
-0.0357605985037,0.0137655860349
-0.0561970074813,-0.00163341645885
-0.081608478803,-0.0068578553616
-0.0869950124688,0.00810473815461
-0.0824314214464,0.0131795511222
-0.0728927680798,-0.00174563591022
-0.0634788029925,-0.00175810473815
-0.0541521197007,0.00317955112219
-0.0599625935162,0.0081421446384
-0.0608728179551,0.0331047381546
-0.0818578553616,0.0280922693267
-0.0879426433915,0.0230049875312
-0.0890149625935,0.00791770573566
-0.100037406484,0.00281795511222
-0.11102244389,-0.00216957605985
-0.116957605985,0.00288029925187
-0.127867830424,-0.00201995012469
-0.133765586035,-0.016970074813
-0.12463840399,-0.031970074813
-0.100561097257,-0.0369326683292
-0.0614089775561,-0.0068578553616
0.0177556109726,-0.00174563591022
0.131957605985,0.00335411471322
0.281221945137,-0.0116209476309
0.480511221945,-0.0466708229426
0.734837905237,-0.0317082294264
1.00420199501,0.0182793017456
1.2636159601,0.123304239401
1.48311720698,0.248379052369
1.59769326683,0.408466334165
1.57728179551,0.543541147132
1.42193266833,0.648591022444
1.1766084788,0.743678304239
0.841234413965,0.723802992519
0.490835411471,0.628815461347
0.195411471322,0.438765586035
-0.035,0.243640897756
-0.165336658354,0.0585286783042
-0.225635910224,-0.0614837905237
-0.215922693267,-0.111471321696
-0.181197007481,-0.116458852868
-0.146421446384,-0.0913965087282
-0.0916334164589,-0.0513965087282
-0.0868453865337,0.00357855361596
-0.0770324189526,0.023578553616
-0.117244389027,0.0235910224439
-0.152493765586,0.028566084788
-0.1727680798,-0.00148379052369
-0.198079800499,-0.0165960099751
-0.213416458853,-0.0466832917706
-0.213815461347,-0.0317581047382
-0.219326683292,-0.011783042394
-0.210049875312,-0.00180798004988
-0.201059850374,-0.0118079800499
-0.19746882793,-0.0118329177057
-0.179413965087,0.00309226932668
-0.157032418953,0.00296758104738
-0.160374064838,0.00270573566085
-0.169351620948,0.00213216957606
-0.173753117207,-0.00385286783042
-0.203279301746,-0.0252493765586
-0.212556109726,-0.0369451371571
-0.211296758105,-0.0338653366584
-0.22421446384,-0.0257356608479
-0.226209476309,-0.0324563591022
-0.232281795511,-0.0388778054863
-0.217643391521,-0.0349625935162
-0.222506234414,-0.0405860349127
-0.217194513716,-0.0308104738155
-0.211920199501,-0.0207481296758
-0.226783042394,-0.0505985037406
-0.216795511222,-0.0505735660848
-0.216945137157,-0.060710723192
-0.222082294264,-0.0509476309227
-0.222219451372,-0.0561845386534
-0.222281795511,-0.0614713216958
-0.1972319202,-0.0716708229426
-0.182132169576,-0.0668453865337
-0.171957605985,-0.0620448877805
-0.166758104738,-0.0522319201995
-0.166558603491,-0.0474064837905
-0.181371571072,-0.0625561097257
-0.181259351621,-0.0777182044888
-0.176172069825,-0.0929177057357
-0.171122194514,-0.088216957606
-0.171047381546,-0.0885037406484
-0.165885286783,-0.0936907730673
-0.170685785536,-0.103703241895
-0.170436408978,-0.118653366584
-0.150174563591,-0.11355361596
-0.144862842893,-0.113441396509
-0.144563591022,-0.103341645885
-0.124289276808,-0.103241895262
-0.119027431421,-0.10812967581
-0.113790523691,-0.113017456359
-0.113566084788,-0.132917705736
-0.118354114713,-0.127842892768
-0.133154613466,-0.132718204489
-0.137967581047,-0.13753117207
-0.137793017456,-0.157269326683
-0.117605985037,-0.161970074813
-0.102394014963,-0.146645885287
-0.0872194513716,-0.131359102244
-0.0720324189526,-0.126122194514
-0.0618703241895,-0.130885286783
-0.0517331670823,-0.145635910224
-0.046608478803,-0.155374064838
-0.0515586034913,-0.155124688279
-0.0715211970075,-0.154862842893
-0.0864962593516,-0.169613466334
-0.091421446384,-0.184289276808
-0.0963216957606,-0.173877805486
-0.0961970074813,-0.158416458853
-0.0860972568579,-0.148004987531
-0.0810099750623,-0.132630922693
-0.0659226932668,-0.137281795511
-0.0608229426434,-0.142007481297
-0.0457855361596,-0.141720698254
-0.0357980049875,-0.131421446384
-0.0258603491272,-0.131159600998
-0.0259600997506,-0.125897755611
-0.0211097256858,-0.140610972569
-0.0162219451372,-0.140224438903
-0.0163092269327,-0.119800498753
-0.0113715710723,-0.0843017456359
-0.00637157107232,-0.0637905236908
-0.00134663341646,-0.0382917705736
0.00864089775561,-0.0428054862843
0.0336159600998,-0.0373566084788
0.0385910224439,-0.0218952618454
0.0385286783042,-0.00147132169576
0.0234164588529,0.00395261845387
0.0182543640898,-0.000635910224439
-0.0019825436409,-0.0102119700748
-0.0222194513716,-0.00476309226933
-0.0374438902743,0.00572319201995
-0.0326059850374,0.0262842892768
-0.0427680798005,0.0318952618454
-0.0378678304239,0.0125311720698
-0.0179675810474,0.0280798004988
-0.00809226932668,0.038566084788
0.00175810473815,0.0490024937656
-0.00340399002494,0.0344264339152
0.00140897755611,0.0348877805486
-0.00376558603491,0.0103740648379
-0.0139401496259,-0.00413965087282
-0.0291396508728,0.00134663341646
-0.0493142144638,0.0168329177057
-0.0645386533666,0.0273566084788
-0.0647755610973,0.0379177057357
-0.0599625935162,0.0234289276808
-0.040174563591,0.0339027431421
-0.0203366583541,0.0193142144638
-0.0155112219451,0.0296758104738
-0.0106857855362,0.0350374064838
-0.0159725685786,0.015349127182
-0.0163341645885,0.0106857855362
-0.0217581047382,0.000960099750623
-0.0272069825436,0.0011970074813
-0.0276558603491,0.0113715710723
-0.0280174563591,0.0165960099751
-0.0233541147132,0.0268578553616
-0.0336408977556,0.0121197007481
-0.00395261845387,0.0222942643392
0.00573566084788,0.0274314214464
0.0104364089776,0.022493765586
-0.0098753117207,0.0275436408978
-0.0101620947631,0.0176309226933
-0.0154488778055,-0.00226932668329
-0.0206608478803,-0.0171820448878
-0.0207980049875,-0.0170698254364
-0.035897755611,0.00310473815461
-0.0459725685786,0.0133665835411
-0.0460099750623,0.0286907730673
-0.0409975062344,0.0240648379052
-0.0509850374065,0.0244264339152
-0.0310224438903,0.0297256857855
-0.0210473815461,0.0399251870324
-0.0160349127182,0.0150623441397
-0.0160349127182,0.0101995012469
-0.0209725685786,-0.00963840399002
-0.015885286783,-0.00450124688279
-0.025710723192,0.000598503740648
-0.0354738154613,0.020710723192
-0.0302119700748,0.035885286783
-0.0399376558603,0.0310972568579
-0.02463840399,0.0262967581047
-0.0144014962594,0.0214713216958
-0.0242019950125,0.0365710723192
-0.0190274314214,0.041608478803
-0.0389152119701,0.0415960099751
-0.0338902743142,0.0266209476309
-0.0338902743142,0.0016957605985
-0.0239900249377,0.00178304239401
-0.0341521197007,0.00684538653367
-0.0393391521197,0.0168703241895
-0.00950124688279,0.011970074813
-0.0146758104738,0.0221695760599
-0.0098753117207,0.0424314214464
-0.0100872817955,0.0576932668329
-0.0103740648379,0.0678678304239
-0.01072319202,0.0879551122195
0.0188902743142,0.0729800498753
0.0384413965087,0.0530174563591
0.0529675810474,0.0431172069825
0.0524812967581,0.0431670822943
0.0720324189526,0.0731546134663
0.0716209476309,0.0731546134663
0.0912344139651,0.0581546134663
0.115872817955,0.0582044887781
0.135498753117,0.0483790523691
0.165099750623,0.0535411471322
0.16970074813,0.0536658354115
0.159289276808,0.0437406483791
0.14885286783,0.0287905236908
0.133366583541,0.0188528678304
0.132805486284,0.0189027431421
0.127206982544,0.0189775561097
0.116596009975,0.0240024937656
0.12102244389,0.0139900249377
0.100548628429,0.00395261845387
0.085187032419,-0.000997506234414
0.0650623441397,0.00410224438903
0.0352244389027,0.0242019950125
0.0207855361596,0.0392269326683
0.0118703241895,0.0441521197007
-0.00139650872818,0.0390648379052
-0.00900249376559,0.0291271820449
-0.0259600997506,0.0144763092269
-0.0424064837905,0.00517456359102
-0.043578553616,-0.00374064837905
-0.064812967581,0.00265586034913
-0.071421446384,-0.0156733167082
-0.0636533665835,-0.0187655860349
-0.0617456359102,0.00307980049875
-0.0657481296758,0.0196758104738
-0.0655112219451,0.0257605985037
-0.0808728179551,0.0313216957606
-0.0865835411471,0.00639650872818
-0.0824688279302,0.0111471321696
-0.0833416458853,0.0158229426434
-0.0941396508728,0.000498753117207
-0.0998628428928,0.0152369077307
-0.0955236907731,0.0150498753117
-0.0961720698254,0.00995012468828
-0.0868204488778,0.00492518703242
-0.0826059850374,-0.00503740648379
-0.0785037406484,-0.00493765586035
-0.0744389027431,0.0101122194514
-0.0704239401496,0.000149625935162
-0.046421446384,0.0100623441397
0.00258104738155,-0.0100124688279
0.0966209476309,-0.00503740648379
0.220635910224,-0.0200124688279
0.399675810474,-0.0299750623441
0.638740648379,-0.0199251870324
0.907880299252,-0.00482543640898
1.19713216958,0.0602743142145
1.44644638404,0.170399002494
1.60081047382,0.330561097257
1.65524937656,0.480698254364
1.5646882793,0.605735660848
1.34911471322,0.685685785536
1.01856608479,0.685610972569
0.653004987531,0.620548628429
0.297481296758,0.475536159601
0.0220074812968,0.325561097257
-0.158391521197,0.140610972569
-0.223740648379,-0.0143391521197
-0.219027431421,-0.114264339152
-0.17927680798,-0.144139650873
-0.13957605985,-0.109089775561
-0.0848628428928,-0.0540149625935
-0.080187032419,-0.00900249376559
-0.0855236907731,0.0109975062344
-0.100822942643,0.0359476309227
-0.131097256858,0.010897755611
-0.156321695761,0.00587281795511
-0.17650872818,-0.00410224438903
-0.191658354115,-0.00907730673317
-0.18680798005,-0.00403990024938
-0.176920199501,-0.0089650872818
-0.162044887781,-0.0189152119701
-0.152157107232,-0.00885286783042
-0.137206982544,0.0161845386534
-0.137281795511,0.0112718204489
-0.147431421446,0.00624688279302
-0.157730673317,-0.0188403990025
-0.173241895262,-0.0239900249377
-0.169064837905,-0.0291271820449
-0.165236907731,-0.0442019950125
-0.166995012469,-0.0342269326683
-0.159364089776,-0.0392269326683
-0.152331670823,-0.0343266832918
-0.155885286783,-0.01963840399
-0.159887780549,-0.000236907730673
-0.164152119701,0.00876558603491
-0.163428927681,-0.00756857855362
-0.162381546135,-0.0291895261845
-0.15572319202,-0.0410473815461
-0.168291770574,-0.0479800498753
-0.164962593516,-0.0447132169576
-0.160860349127,-0.0410598503741
-0.166172069825,-0.0319326683292
-0.171109725686,-0.0473815461347
-0.175847880299,-0.0475311720698
-0.185486284289,-0.0525187032419
-0.165174563591,-0.0374563591022
-0.169950124688,-0.0473940149626
-0.154837905237,-0.0674189526185
-0.159775561097,-0.0776309226933
-0.154725685786,-0.102992518703
-0.154688279302,-0.0983790523691
-0.144600997506,-0.0837406483791
-0.139438902743,-0.0790024937656
-0.144239401496,-0.0791521197007
-0.143965087282,-0.07927680798
-0.143640897756,-0.0694139650873
-0.128241895262,-0.0695386533666
-0.122793017456,-0.0596633416459
-0.107369077307,-0.0698004987531
-0.0919326683292,-0.0799002493766
-0.10650872818,-0.100037406484
-0.106059850374,-0.110187032419
-0.105586034913,-0.130324189526
-0.110124688279,-0.130399002494
-0.109663341646,-0.135411471322
-0.0942144638404,-0.145324189526
-0.0937157107232,-0.140199501247
-0.0881670822943,-0.140024937656
-0.0776059850374,-0.129812967581
-0.0770448877805,-0.119588528678
-0.0714962593516,-0.129376558603
-0.0609351620948,-0.139164588529
-0.0504239401496,-0.143952618454
-0.0499750623441,-0.153753117207
-0.0495386533666,-0.158566084788
-0.044102244389,-0.168329177057
-0.0487281795511,-0.188067331671
-0.0433291770574,-0.172842892768
-0.0328802992519,-0.152543640898
-0.0374189526185,-0.137182044888
-0.0469326683292,-0.131770573566
-0.0414463840399,-0.136408977556
-0.0509600997506,-0.151059850374
-0.0454738154613,-0.15078553616
-0.0450498753117,-0.150511221945
-0.0446758104738,-0.145236907731
-0.0343765586035,-0.144925187032
-0.0141521197007,-0.154588528678
-0.0288902743142,-0.149251870324
-0.0136034912718,-0.143927680798
-0.0332793017456,-0.118566084788
-0.017855361596,-0.108229426434
-0.0174189526185,-0.102842892768
0.00799251870324,-0.0824563591022
0.0283790523691,-0.0771072319202
0.0387281795511,-0.051783042394
0.0440399002494,-0.0364588528678
0.054289276808,-0.0160972568579
0.0395137157107,-0.025710723192
0.0397256857855,-0.0353366583541
0.0249501246883,-0.0249251870324
0.025174563591,-0.00953865336658
0.0304987531172,0.000910224438903
0.0158478802993,0.016433915212
0.0262344139651,0.0269326683292
0.0265835411471,0.0224314214464
0.0269201995012,0.0329052369077
0.0122069825436,0.0383541147132
0.00241895261845,0.0437655860349
-0.00739401496259,0.0341895261845
-0.00728179551122,0.00966334164589
-0.00721945137157,0.0051246882793
-0.0121197007481,-0.0143765586035
-0.00703241895262,-0.0138528678304
-0.0019825436409,-0.00327930174564
0.00315461346633,0.0123316708229
0.0033042394015,0.0179925187032
0.0184912718204,0.0285910224439
0.0186783042394,0.0391521197007
0.0238778054863,0.0446633416459
0.0090897755611,0.0502119700748
0.00926433915212,0.0457481296758
-0.000598503740648,0.0262718204489
-0.00546134663342,0.0118079800499
-0.02036159601,0.00731920199501
-0.0202369077307,0.0128428927681
-0.0100872817955,0.0234164588529
-0.00995012468828,0.0340399002494
-0.00477556109726,0.034650872818
0.00537406483791,0.0252618453865
-0.00450124688279,0.0207605985037
0.000660847880299,0.0211970074813
0.000810473815461,0.026608478803
0.000860349127182,0.0419825436409
-0.00913965087282,0.0322942643392
0.000910224438903,0.0175685785536
0.0109476309227,-0.00216957605985
0.0110099750623,-0.00188279301746
0.0160847880299,0.0184912718204
0.0161221945137,0.0188902743142
0.0111845386534,0.02927680798
0.0113216957606,0.0196134663342
0.0165087281796,0.00985037406484
0.0267581047382,0.0350124688279
0.021970074813,0.0452119700748
0.0172568578554,0.0404364089776
0.0175436408978,0.0456359102244
0.0028927680798,0.0308229426434
0.00831670822943,0.00602244389027
-0.0011970074813,0.00622194513716
-0.00562344139651,0.0164463840399
-3.74064837906e-05,0.0216708229426
0.000498753117207,0.0268329177057
0.0110598503741,0.0169825436409
0.0365835411471,0.0270947630923
0.042144638404,0.0121820448878
0.0427182044888,0.0172568578554
0.0382668329177,0.0173441396509
0.0238154613466,0.0223940149626
0.0193266832918,0.0174064837905
0.00476309226933,0.0024812967581
0.0051246882793,0.00755610972569
-0.00457605985037,0.0226932668329
-0.0143017456359,0.0278678304239
-0.0190274314214,0.048042394015
-0.0137780548628,0.038216957606
-0.0135162094763,0.028391521197
0.00167082294264,0.0135037406484
0.00680798004988,0.018566084788
0.0119201995012,0.0285536159601
0.00692019950125,0.0235536159601
0.0118952618454,0.0235411471322
0.0218453865337,0.0285536159601
0.0367456359102,0.0336034912718
0.0466708229426,0.0487032418953
0.0566209476309,0.0637780548628
0.0665710723192,0.0738902743142
0.0765586034913,0.0839526184539
0.0815336658354,0.0640523690773
0.0865211970075,0.0591521197007
0.0914837905237,0.0591895261845
0.121396508728,0.0692518703242
0.121271820449,0.0893266832918
0.131134663342,0.0794139650873
0.146009975062,0.0544763092269
0.155910224439,0.0345386533666
0.150860349127,0.0245760598504
0.145860349127,0.01463840399
0.135860349127,0.0347381546135
0.135935162095,0.0448753117207
0.11614713217,0.0449251870324
0.136608478803,0.0349501246883
0.137381546135,0.0198877805486
0.133591022444,0.0147880299252
0.125411471322,0.00973815461347
0.10789276808,0.00977556109726
0.0861346633416,-2.49376558604e-05
0.0649875311721,-0.0145386533666
0.0392394014963,-0.00865336658354
0.0185910224439,0.0126059850374
0.0227182044888,0.0391895261845
0.0213216957606,0.0560349127182
0.0190773067332,0.0628802992519
0.00592269326683,0.0395261845387
-0.0181296758105,0.0207605985037
-0.0328304239401,0.0165710723192
-0.0579675810474,0.0119326683292
-0.0783042394015,0.0119201995012
-0.0886159600998,0.00164588528678
-0.0838528678304,0.00125935162095
-0.0790274314214,-0.00905236907731
-0.0640773067332,0.00577306733167
-0.064114713217,0.0206982543641
-0.0792269326683,0.0356857855362
-0.0894014962594,0.0306982543641
-0.084650872818,0.0106234413965
-0.085,-0.00448877805486
-0.0903865336658,0.000374064837905
-0.0858354114713,0.00523690773067
-0.101284289277,-0.0048753117207
-0.111758104738,-0.00996259351621
-0.1172319202,-0.0300748129676
-0.137730673317,-0.0351246882793
-0.12325436409,-0.0500623441397
-0.0937905236908,-0.00497506234414
-0.0293516209476,0.0151371571072
0.0501122194514,0.030187032419
0.17457605985,0.010187032419
0.334064837905,-0.00985037406484
0.573566084788,-0.0299750623441
0.818104738155,-0.0300374064838
1.07769326683,0.00991271820449
1.31734413965,0.0899251870324
1.50199501247,0.199925187032
1.60670822943,0.340012468828
1.60650872818,0.480099750623
1.46137157107,0.590137157107
1.21130922693,0.680149625935
0.901321695761,0.690099750623
0.561359102244,0.605012468828
0.266421446384,0.464912718204
0.0465461346633,0.289850374065
-0.0883291770574,0.124825436409
-0.158266832918,-0.000174563591022
-0.18819201995,-0.0802244389027
-0.163117206983,-0.110286783042
-0.132942643392,-0.110274314214
-0.107780548628,-0.0752867830424
-0.102568578554,-0.0152867830424
-0.102356608479,0.0297007481297
-0.102132169576,0.049650872818
-0.121907730673,0.0545511221945
-0.141695760599,0.0244264339152
-0.151483790524,-0.00572319201995
-0.166296758105,-0.020885286783
-0.181097256858,-0.0210099750623
-0.195872817955,-0.0260847880299
-0.205598503741,-0.0161346633416
-0.185286783042,-0.0111221945137
-0.189900249377,-0.021072319202
-0.179476309227,-0.0210099750623
-0.184164588529,-0.0160349127182
-0.194027431421,-0.00114713216958
-0.184152119701,0.0086783042394
-0.179688279302,0.00346633416459
-0.17072319202,-0.0116957605985
-0.182294264339,-0.0318329177057
-0.179476309227,-0.0469451371571
-0.182269326683,-0.0472069825436
-0.185573566085,-0.0326932668329
-0.199326683292,-0.023391521197
-0.213216957606,-0.0293765586035
-0.216932668329,-0.0406359102244
-0.215224438903,-0.0320698254364
-0.227855361596,-0.0186533665835
-0.224738154613,-0.0202867830424
-0.210885286783,-0.0268703241895
-0.2163840399,-0.033216957606
-0.216396508728,-0.0491770573566
-0.211072319202,-0.0647007481297
-0.210635910224,-0.0748379052369
-0.215162094763,-0.0697506234414
-0.20970074813,-0.0646758104738
-0.21427680798,-0.0597132169576
-0.198890274314,-0.0748379052369
-0.193478802993,-0.07
-0.183054862843,-0.0701995012469
-0.167556109726,-0.0704364089776
-0.181945137157,-0.06072319202
-0.186334164589,-0.0710224438903
-0.180635910224,-0.0762967581047
-0.199987531172,-0.0814713216958
-0.199301745636,-0.0915586034913
-0.1836159601,-0.0866334164589
-0.177867830424,-0.0916458852868
-0.162057356608,-0.0866832917706
-0.151197007481,-0.0966708229426
-0.13029925187,-0.111633416459
-0.119364089776,-0.11150872818
-0.113503740648,-0.101408977556
-0.112655860349,-0.106334164589
-0.12180798005,-0.111271820449
-0.130922693267,-0.126209476309
-0.130024937656,-0.151122194514
-0.139164588529,-0.145947630923
-0.143241895262,-0.14072319202
-0.137344139651,-0.140486284289
-0.12144638404,-0.150249376559
-0.0955860349127,-0.149975062344
-0.0847630922693,-0.154675810474
-0.0690024937656,-0.154376558603
-0.0582793017456,-0.139114713217
-0.0725810473815,-0.138902743142
-0.0619201995012,-0.153778054863
-0.0562219451372,-0.173665835411
-0.0704862842893,-0.183528678304
-0.0646882793017,-0.193329177057
-0.0739027431421,-0.193079800499
-0.0730798004988,-0.182805486284
-0.0822817955112,-0.182518703242
-0.0815087281796,-0.192219451372
-0.0758104738155,-0.181907730673
-0.0701496259352,-0.156571072319
-0.0645386533666,-0.146259351621
-0.0589401496259,-0.140985037406
-0.0533416458853,-0.150760598504
-0.0527182044888,-0.175498753117
-0.0570698254364,-0.180211970075
-0.066433915212,-0.169875311721
-0.0758354114713,-0.169526184539
-0.0602618453865,-0.139164588529
-0.0747506234414,-0.138802992519
-0.05927680798,-0.128466334165
-0.0287780548628,-0.108117206983
-0.0132917705736,-0.0727057356608
-0.00284289276808,-0.0623441396509
-0.00236907730673,-0.046970074813
-0.00687032418953,-0.0367082294264
-0.0113840399002,-0.0564463840399
0.00403990024938,-0.0561346633416
-0.00559850374065,-0.0307980049875
-0.00529925187032,-0.0253740648379
-0.00501246882793,-0.00491271820449
-0.0147256857855,0.0155112219451
0.000610972568579,0.000972568578554
-0.00910224438903,0.0214962593516
-0.00887780548628,0.0320324189526
-0.0136533665835,0.0225935162095
-0.0185162094763,0.0181296758105
-0.0234289276808,0.00860349127182
-0.0284289276808,0.00405236907731
-0.0284663341646,0.00451371571072
-0.0184663341646,0.02
-0.0384912718204,0.010536159601
-0.0384289276808,0.0160349127182
-0.0533167082294,0.026608478803
-0.0631795511222,0.0321321695761
-0.0630922693267,0.0326683291771
-0.0580798004988,0.0382543640898
-0.0630922693267,0.0438902743142
-0.0481296758105,0.0145261845387
-0.0382668329177,0.0201371571072
-0.0434289276808,0.0156733167082
-0.0486408977556,0.0162344139651
-0.0589152119701,0.0218079800499
-0.0642394014963,0.0174812967581
-0.0795760598504,0.00817955112219
-0.0699501246883,0.0188528678304
-0.0703241895262,0.0294389027431
-0.065710723192,0.0500249376559
-0.0461346633416,0.0505610972569
-0.0465710723192,0.0360473815461
-0.0320573566085,0.0215211970075
-0.0125311720698,0.026970074813
-0.0280174563591,0.0223815461347
-0.0385037406484,0.0377680798005
-0.0539775561097,0.0281546134663
-0.0744139650873,0.0235910224439
-0.0648004987531,0.0140149625935
-0.0701371571072,0.0193765586035
-0.0704862842893,0.0297007481297
-0.0557980049875,0.0349501246883
-0.0360473815461,0.0301995012469
-0.0312967581047,0.0204862842893
-0.0265710723192,0.0257605985037
-0.0318578553616,0.0159975062344
-0.0471571072319,0.0261346633416
-0.062493765586,0.0312344139651
-0.0578678304239,0.00623441396509
-0.063216957606,0.00128428927681
-0.0685411471322,0.016433915212
-0.0739027431421,0.0315710723192
-0.0742518703242,0.0516832917706
-0.069650872818,0.0567456359102
-0.0750997506234,0.0467955112219
-0.0705735660848,0.0268204488778
-0.0860847880299,0.0268703241895
-0.0816708229426,0.0219077306733
-0.0873067331671,0.0218703241895
-0.0730174563591,0.0217955112219
-0.0737905236908,0.0167581047382
-0.0796009975062,-0.00820448877805
-0.0704488778055,-0.00809226932668
-0.0713092269327,0.00705735660848
-0.0672194513716,0.027144638404
-0.0831920199501,0.0471695760599
-0.0892019950125,0.0421820448878
-0.0752369077307,0.0371695760599
-0.0813591022444,0.0421695760599
-0.0725436408978,0.0571197007481
-0.0587157107232,0.0620448877805
-0.0548753117207,0.0619451371571
-0.0559975062344,0.0668453865337
-0.0320947630923,0.0618453865337
-0.0232294264339,0.0769201995012
-0.0243640897756,0.0869950124688
-0.0104862842893,0.0970448877805
-0.016608478803,0.0970324189526
-0.00775561097257,0.091970074813
-0.003927680798,0.0869451371571
0.0148503740648,0.0718827930175
0.0286034912718,0.0718329177057
0.0473441396509,0.0567082294264
0.0710847880299,0.0365960099751
0.0748628428928,0.0214089775561
0.0737281795511,0.00633416458853
0.0527805486284,0.00634663341646
0.0370324189526,0.0214713216958
0.0316334164589,0.0315211970075
0.0316458852868,0.0514962593516
0.0172319201995,0.0364089775561
0.00839152119701,0.0262593516209
-0.00481296758105,0.00624688279302
-0.00240648379052,0.0264588528678
-0.0245261845387,0.0119326683292
-0.0564089775561,0.0227306733167
-0.0733167082294,0.0288653366584
-0.0955735660848,0.0202992518703
-0.113391521197,0.036957605985
-0.131945137157,0.0486907730673
-0.136309226933,0.0602369077307
-0.1563840399,0.0513965087282
-0.162032418953,0.0471321695761
-0.143004987531,0.0224189526185
-0.154164588529,0.0424314214464
-0.16542394015,0.0422693266833
-0.186658354115,0.0270074812968
-0.187793017456,0.0267082294264
-0.193902743142,0.00147132169576
-0.2,-0.00360349127182
-0.201072319202,-0.0135411471322
-0.202157107232,0.011608478803
-0.188279301746,0.0367581047382
-0.184451371571,0.051783042394
-0.180685785536,0.0567082294264
-0.186970074813,0.0415835411471
-0.198329177057,0.0314713216958
-0.204788029925,0.0213341645885
-0.216271820449,0.0061970074813
-0.232780548628,-0.018927680798
-0.234301745636,-0.0340773067332
-0.205847880299,-0.0191521197007
-0.137443890274,0.00584788029925
-0.0340773067332,0.0109351620948
0.12433915212,0.0260598503741
0.322817955112,0.00114713216958
0.551371571072,-0.0187905236908
0.794900249377,-0.0238029925187
1.04347880299,0.0361720698254
1.25705735661,0.136134663342
1.4356234414,0.23108478803
1.49416458853,0.33608478803
1.43270573566,0.436122194514
1.27132169576,0.501172069825
1.005,0.551309226933
0.703753117207,0.56644638404
0.412593516209,0.536533665835
0.146558603491,0.421558603491
-0.0444264339152,0.281571072319
-0.170349127182,0.126596009975
-0.221209476309,-0.0134413965087
-0.247044887781,-0.0985037406484
-0.237880299252,-0.0986034912718
-0.233690773067,-0.0686658354115
-0.214501246883,-0.0337032418953
-0.225274314214,-0.0186907730673
-0.231034912718,0.00134663341646
-0.251758104738,0.0163591022444
-0.277418952618,0.0263840399002
-0.293079800499,0.0364089775561
-0.313740648379,0.031433915212
-0.314351620948,0.0164837905237
-0.314987531172,-0.00849127182045
-0.315623441397,-0.00851620947631
-0.316246882793,-0.013566084788
-0.321845386534,0.00133416458853
-0.332369077307,0.00628428927681
-0.34283042394,0.0112593516209
-0.348204488778,-0.00376558603491
-0.333503740648,-0.00371571072319
-0.328765586035,-0.00365336658354
-0.344014962594,0.0113466334165
-0.359364089776,0.0262842892768
-0.359912718204,0.0262094763092
-0.360773067332,0.006072319202
-0.377057356608,-0.00405236907731
-0.368902743142,-0.0141645885287
-0.371334164589,-0.00430174563591
-0.374364089776,-0.0145261845387
-0.372942643392,-0.0198877805486
-0.361957605985,-0.0304738154613
-0.351221945137,-0.0414463840399
-0.345436408978,-0.0277431421446
-0.339401496259,-0.0144139650873
-0.352805486284,-0.0113466334165
-0.365498753117,-0.0133541147132
-0.387456359102,-0.0252244389027
-0.383703241895,-0.0417705735661
-0.384389027431,-0.0428927680798
-0.374713216958,-0.0385910224439
-0.359825436409,-0.0388902743142
-0.344862842893,-0.0389650872818
-0.329912718204,-0.0539152119701
-0.320012468828,-0.0638154613466
-0.320187032419,-0.0638029925187
-0.335411471322,-0.0489152119701
-0.345586034913,-0.0591645885287
-0.345710723192,-0.0594887780549
-0.340748129676,-0.069825436409
-0.320760598504,-0.0751246882793
-0.300773067332,-0.0904239401496
-0.285760598504,-0.0956733167082
-0.265773067332,-0.0859351620948
-0.27578553616,-0.0861471321696
-0.270698254364,-0.0962718204489
-0.265548628429,-0.0862344139651
-0.265349127182,-0.106122194514
-0.265112219451,-0.0809850374065
-0.259837905237,-0.0808603491272
-0.229563591022,-0.0808229426434
-0.204289276808,-0.0908354114713
-0.184089775561,-0.115748129676
-0.17891521197,-0.140698254364
-0.173765586035,-0.135573566085
-0.183603491272,-0.125436408978
-0.168379052369,-0.140336658354
-0.148167082294,-0.150099750623
-0.147917705736,-0.154800498753
-0.127643391521,-0.159526184539
-0.102381546135,-0.159301745636
-0.0770947630923,-0.149139650873
-0.0668204488778,-0.144027431421
-0.0765835411471,-0.148865336658
-0.0663715710723,-0.163653366584
-0.0912344139651,-0.158453865337
-0.0861097256858,-0.178216957606
-0.0910224438903,-0.172992518703
-0.0709600997506,-0.172755610973
-0.0458603491272,-0.192493765586
-0.0507481296758,-0.20716957606
-0.0456359102244,-0.211795511222
-0.0204738154613,-0.21650872818
-0.0102992518703,-0.181234413965
-0.000174563591022,-0.17602244389
0.0149251870324,-0.175835411471
0.03,-0.195635910224
0.0400249376559,-0.215448877805
0.0550124688279,-0.215236907731
0.0700374064838,-0.194987531172
0.0800374064838,-0.189725685786
0.100074812968,-0.159413965087
0.100162094763,-0.144052369077
0.125261845387,-0.138703241895
0.130411471322,-0.123341645885
0.150586034913,-0.102980049875
0.160760598504,-0.077680798005
0.165885286783,-0.0623566084788
0.160972568579,-0.0720573566085
0.150997506234,-0.0567456359102
0.135997506234,-0.051421446384
0.145972568579,-0.0410972568579
0.135910224439,-0.01072319202
0.140910224439,-0.000361596009975
0.140960099751,0.00504987531172
0.16102244389,0.000461346633416
0.181072319202,-0.00906483790524
0.196122194514,0.0113840399002
0.20614713217,0.0168453865337
0.216122194514,0.0472568578554
0.196122194514,0.0475810473815
0.186109725686,0.0178927680798
0.18108478803,0.0232917705736
0.196047381546,0.0237655860349
0.216009975062,0.0292643391521
0.230972568579,0.0297755610973
0.230947630923,0.0353117206983
0.225947630923,0.0257855361596
0.230947630923,0.0212842892768
0.225947630923,0.0367705735661
0.225947630923,0.0572069825436
0.225985037406,0.0626184538653
0.240997506234,0.0580049875312
0.250985037406,0.0433042394015
0.250985037406,0.0336408977556
0.255972568579,0.0340523690773
0.255985037406,0.0395261845387
0.255960099751,0.0400124688279
0.240960099751,0.0454613466334
0.255922693267,0.0409102244389
0.270872817955,0.0513840399002
0.270835411471,0.0618703241895
0.270798004988,0.0623566084788
0.270760598504,0.0777805486284
0.260685785536,0.0531296758105
0.260673316708,0.0384663341646
0.250623441397,0.0338029925187
0.250548628429,0.0241396508728
0.250498753117,0.034463840399
0.255411471322,0.0597506234414
0.270349127182,0.0500249376559
0.275311720698,0.0552743142145
0.275399002494,0.0454613466334
0.275561097257,0.0556608478803
0.255798004988,0.0458104738155
0.256059850374,0.0608728179551
0.251359102244,0.0608603491272
0.241608478803,0.0458104738155
0.241770573566,0.0157980049875
0.226945137157,0.0258478802993
0.222132169576,0.035885286783
0.232344139651,0.0409600997506
0.247568578554,0.0659600997506
0.252793017456,0.0509226932668
0.248042394015,0.0408603491272
0.24325436409,0.0458728179551
0.253416458853,0.055885286783
0.263428927681,0.0608728179551
0.258366583541,0.0508478802993
0.23319201995,0.0507730673317
0.217980049875,0.0307730673317
0.202718204489,0.0208104738155
0.192443890274,0.0359102244389
0.202144638404,0.0310099750623
0.196845386534,0.0460847880299
0.201645885287,0.031072319202
0.211433915212,0.0211346633416
0.226184538653,0.0311845386534
0.215922693267,0.0462219451372
0.230635910224,0.0562094763092
0.230324189526,0.0510972568579
0.22,0.0409476309227
0.22463840399,0.0257855361596
0.219289276808,0.0307356608479
0.219002493766,0.0507730673317
0.233715710723,0.0608728179551
0.238441396509,0.0659725685786
0.253154613466,0.0609975062344
0.277867830424,0.0659975062344
0.277581047382,0.0759725685786
0.307281795511,0.0759226932668
0.306945137157,0.0758354114713
0.326571072319,0.0456608478803
0.341259351621,0.0204987531172
0.34608478803,0.000411471321696
0.336184538653,-0.00465087281796
0.316683291771,0.00536159600998
0.297743142145,0.000361596009975
0.299426433915,0.0103366583541
0.286758104738,0.000249376558603
0.28970074813,0.00531172069825
0.298167082294,0.0255985037406
0.302032418953,0.0161097256858
0.296047381546,-0.0031421446384
0.269912718204,-0.0171820448878
0.253366583541,-0.0410847880299
0.216159600998,-0.0248503740648
0.188291770574,-0.0035536159601
0.154688279302,0.0177057356608
0.130436408978,0.0187281795511
0.10572319202,-0.000573566084788
0.0856857855362,0.00972568578554
0.075536159601,0.00960099750623
0.0703366583541,0.029289276808
0.0651620947631,0.0189900249377
0.0599875311721,0.0137780548628
0.059825436409,-0.0213965087282
0.0596259351621,-0.0265211970075
0.0544139650873,-0.0166209476309
0.0441895261845,-0.0216458852868
0.0289152119701,-0.0116583541147
0.0236284289277,-0.0216209476309
0.00832917705736,-0.0365960099751
-0.00197007481297,-0.0316209476309
-0.0022319201995,-0.0217456359102
0.00746882793017,-0.00689526184539
0.00213216957606,0.00796758104738
-0.0132294264339,-0.00714463840399
-0.0286284289277,-0.0272319201995
-0.0440897755611,-0.0423815461347
-0.0645885286783,-0.0725810473815
-0.0750872817955,-0.0678054862843
-0.0805860349127,-0.048029925187
-0.0510972568579,-0.0282044887781
0.0183167082294,-0.0383541147132
0.142743142145,-0.0384912718204
0.30216957606,-0.0386907730673
0.521546134663,-0.0389027431421
0.760872817955,-0.0291271820449
1.01516209476,-0.00431421446384
1.25935162095,0.0504613466334
1.4435286783,0.135224438903
1.557680798,0.28993765586
1.54682044888,0.43470074813
1.43100997506,0.584551122195
1.21528678304,0.674463840399
0.934588528678,0.684413965087
0.623877805486,0.61933915212
0.343142144638,0.479226932668
0.107493765586,0.309102244389
-0.0381421446384,0.149027431421
-0.133728179551,-0.0110847880299
-0.164251870324,-0.111209476309
-0.15470074813,-0.151359102244
-0.130049875312,-0.146546134663
-0.0953117206983,-0.101733167082
-0.070536159601,-0.0468952618454
-0.0857605985037,-0.00199501246883
-0.105922693267,0.00285536159601
-0.146059850374,0.00269326683292
-0.166122194514,-0.00249376558603
-0.176109725686,-0.00268079800499
-0.171047381546,0.00713216957606
-0.175935162095,0.0119451371571
-0.160760598504,0.00174563591022
-0.170635910224,-0.0134788029925
-0.180486284289,-0.0437281795511
-0.190324189526,-0.0639027431421
-0.205187032419,-0.0591271820449
-0.225,-0.0443017456359
-0.229763092269,-0.0294513715711
-0.214451371571,-0.00961346633416
-0.194052369077,-0.0248379052369
-0.183603491272,-0.00508728179551
-0.173142144638,-0.0153990024938
-0.187643391521,-0.00071072319202
-0.197132169576,-0.000985037406484
-0.201633416459,-0.0362967581047
-0.216097256858,-0.0515835411471
-0.230610972569,-0.0518952618454
-0.230211970075,-0.0372319201995
-0.244987531172,-0.0226184538653
-0.24506234414,-0.00798004987531
-0.230573566085,-0.0282668329177
-0.211695760599,-0.0335536159601
-0.203503740648,-0.0388778054863
-0.201109725686,-0.0493391521197
-0.204376558603,-0.0350498753117
-0.208117206983,-0.0360349127182
-0.226920199501,-0.0473067331671
-0.230324189526,-0.0688279301746
-0.238054862843,-0.0855236907731
-0.244887780549,-0.0821695760599
-0.240698254364,-0.0735910224439
-0.225698254364,-0.0545511221945
-0.220074812968,-0.0451122194514
-0.219077306733,-0.0453366583541
-0.202955112219,-0.0454613466334
-0.201832917706,-0.0656733167082
-0.205760598504,-0.0710349127182
-0.194775561097,-0.0664089775561
-0.203815461347,-0.0668578553616
-0.202817955112,-0.0872817955112
-0.206758104738,-0.097680798005
-0.210523690773,-0.118067331671
-0.199189526185,-0.113391521197
-0.212755610973,-0.093578553616
-0.201271820449,-0.0886658354115
-0.199788029925,-0.0887032418953
-0.193291770574,-0.0988029925187
-0.171820448878,-0.113927680798
-0.165411471322,-0.109027431421
-0.148965087282,-0.119089775561
-0.15753117207,-0.109077306733
-0.15608478803,-0.134064837905
-0.15463840399,-0.144014962594
-0.143142144638,-0.164002493766
-0.146596009975,-0.164002493766
-0.150012468828,-0.15891521197
-0.143416458853,-0.133778054863
-0.146783042394,-0.12355361596
-0.145211970075,-0.123379052369
-0.143640897756,-0.143304239401
-0.14210723192,-0.158216957606
-0.140536159601,-0.148142144638
-0.133940149626,-0.148054862843
-0.142344139651,-0.168004987531
-0.145760598504,-0.162930174564
-0.159177057357,-0.172842892768
-0.152556109726,-0.172705735661
-0.155935162095,-0.152506234414
-0.154314214464,-0.1422319202
-0.142693266833,-0.136970074813
-0.13602244389,-0.12674563591
-0.129364089776,-0.141558603491
-0.122743142145,-0.1563840399
-0.126109725686,-0.161209476309
-0.124563591022,-0.146047381546
-0.138029925187,-0.135897755611
-0.106533665835,-0.140735660848
-0.105,-0.145573566085
-0.098391521197,-0.135324189526
-0.0817456359102,-0.129975062344
-0.0750374064838,-0.10457605985
-0.0583167082294,-0.0691645885287
-0.0566583541147,-0.0688528678304
-0.0300374064838,-0.0535910224439
-0.0184912718204,-0.0433291770574
-0.0119950124688,-0.0281047381546
-0.000536159600998,-0.0128802992519
0.000947630922693,-0.0125810473815
-0.00255610972569,-0.00728179551122
-0.0310473815461,0.00305486284289
-0.0445012468828,-0.00162094763092
-0.0529426433915,0.00377805486284
-0.0364463840399,0.0191770573566
-0.0449376558603,0.0346134663342
-0.0234538653367,0.0350124688279
-0.00703241895262,0.0203990024938
-0.0256608478803,0.01072319202
-0.0343391521197,0.0260598503741
-0.043042394015,0.0313965087282
-0.0617206982544,0.0467331670823
-0.070349127182,0.0521695760599
-0.0939650872818,0.0426059850374
-0.0775810473815,0.0330548628429
-0.0811720698254,0.0185037406484
-0.0547381546135,0.0389650872818
-0.0432793017456,0.0494264339152
-0.0218578553616,0.0598503740648
-0.0255236907731,0.0453117206983
-0.0242394014963,0.0406982543641
-0.0230049875312,0.0260473815461
-0.0318079800499,0.0163965087282
-0.0355985037406,0.0216957605985
-0.0544014962594,0.0320324189526
-0.0581920199501,0.0223690773067
-0.0519451371571,0.0277057356608
-0.0656234413965,0.0180548628429
-0.0543017456359,0.0384164588529
-0.0479301745636,0.0537655860349
-0.0465710723192,0.0640897755611
-0.0302867830424,0.0593640897756
-0.0340399002494,0.0395386533666
-0.0428678304239,0.0296758104738
-0.0367331670823,0.0197755610973
-0.0355985037406,0.0248877805486
-0.034463840399,0.0400249376559
-0.0433042394015,0.0401620947631
-0.0470947630923,0.0402743142145
-0.0508478802993,0.0354114713217
-0.0495012468828,0.0255112219451
-0.0331296758105,0.0456234413965
-0.0266583541147,0.0556857855362
-0.0101496259352,0.0506857855362
-0.0136034912718,0.0456359102244
-0.0121197007481,0.0305236907731
-0.035710723192,0.0103990024938
-0.0543640897756,0.000311720698254
-0.0680049875312,0.0202867830424
-0.0617206982544,0.0202244389027
-0.0553990024938,0.030174563591
-0.0340523690773,0.0351496259352
-0.0326932668329,0.0451122194514
-0.0313092269327,0.0600374064838
-0.0249875311721,0.0699127182045
-0.0237281795511,0.0647506234414
-0.0575810473815,0.0545760598504
-0.0515336658354,0.039463840399
-0.0555486284289,0.0193516209476
-0.0595760598504,0.00925187032419
-0.0536907730673,0.014102244389
-0.0578678304239,0.0439650872818
-0.0621321695761,0.0338902743142
-0.0614089775561,0.0288778054863
-0.0556608478803,0.0238154613466
-0.0399251870324,0.0437655860349
-0.0341645885287,0.0386284289277
-0.0333790523691,0.0485162094763
-0.0475935162095,0.0334039900249
-0.0518703241895,0.0382543640898
-0.0611845386534,0.0281172069825
-0.0755236907731,0.0279301745636
-0.0748877805486,0.0327431421446
-0.08927680798,0.0475935162095
-0.0736783042394,0.0574688279302
-0.058042394015,0.0473940149626
-0.0524064837905,0.0523067331671
-0.0468204488778,0.0471695760599
-0.0312967581047,0.0770324189526
-0.0208354114713,0.0818827930175
-0.00542394014963,0.0916209476309
-2.49376558604e-05,0.0913341645885
-0.00961346633416,0.0860349127182
0.00588528678304,0.0908104738155
0.00159600997506,0.0855985037406
0.00260598503741,0.0904364089776
0.00900249376559,0.0853241895262
0.0409476309227,0.0802119700748
0.0584912718204,0.0751246882793
0.101683291771,0.0800623441397
0.115523690773,0.0801371571072
0.144812967581,0.0904114713217
0.169401496259,0.0610847880299
0.163927680798,0.0420573566085
0.143142144638,0.0333790523691
0.126832917706,0.0249501246883
0.124837905237,0.0365835411471
0.117057356608,0.0430922693267
0.0886159600998,0.0342518703242
0.0846009975062,0.0149501246883
0.0752244389027,0.0352244389027
0.0656483790524,0.0401122194514
0.0510099750623,0.0498004987531
0.0263216957606,0.0494139650873
0.0016957605985,0.0390149625935
-0.0128428927681,0.0287032418953
-0.0273067331671,0.0184663341646
-0.0618204488778,0.0283167082294
-0.0713840399002,0.033216957606
-0.0960598503741,0.0331421446384
-0.105773067332,0.0280673316708
-0.105486284289,0.0129925187032
-0.110199501247,0.00793017456359
-0.114925187032,0.022855361596
-0.104650872818,0.0327431421446
-0.109426433915,0.0325685785536
-0.109289276808,0.012319201995
-0.0992518703242,0.0119451371571
-0.119289276808,0.0165461346633
-0.134401496259,0.00614713216958
-0.134563591022,0.010885286783
-0.144688279302,0.0256857855362
-0.144775561097,0.0104862842893
-0.144875311721,0.0102867830424
-0.154962593516,0.0150498753117
-0.170099750623,0.00986284289277
-0.15029925187,0.0097506234414
-0.145548628429,-0.0104114713217
-0.125835411471,-0.00558603491272
-0.0711471321696,-0.000785536159601
0.023566084788,0.0190399002494
0.168216957606,0.0188778054863
0.352880299252,-0.00620947630923
0.587581047382,-0.0113216957606
0.872381546135,-0.0114463840399
1.1672319202,0.0484164588529
1.43711970075,0.12825436409
1.62211970075,0.243142144638
1.66716957606,0.358054862843
1.53225685786,0.437930174564
1.25739401496,0.4927680798
0.902543640898,0.467543640898
0.517718204489,0.372294264339
0.202905236908,0.222032418953
-0.0368578553616,0.0668453865337
-0.171558603491,-0.0683291770574
-0.206234413965,-0.128441396509
-0.195835411471,-0.113528678304
-0.16042394015,-0.0536783042394
-0.109962593516,-0.0288528678304
-0.0894389027431,0.00602244389027
-0.0839900249377,0.025885286783
-0.108528678304,0.030710723192
-0.153079800499,0.0304862842893
-0.187643391521,0.0201620947631
-0.207194513716,-0.0151496259352
-0.216795511222,-0.0304239401496
-0.211371571072,-0.0356359102244
-0.220935162095,-0.0207980049875
-0.220486284289,0.00401496259352
-0.209950124688,-0.00124688279302
-0.21433915212,-0.00653366583541
-0.218678304239,-0.00678304239401
-0.218029925187,0.0030174563591
-0.217356608479,-0.00720698254364
-0.21674563591,0.00250623441397
-0.216234413965,-0.00290523690773
-0.215885286783,-0.0183790523691
-0.21078553616,-0.0338528678304
-0.215997506234,-0.0391770573566
-0.211596009975,-0.0193890274314
-0.222730673317,-0.00957605985037
-0.214488778055,-0.00983790523691
-0.216945137157,-0.0052493765586
-0.210037406484,-0.00586034912718
-0.1986159601,0.00831670822943
-0.197431421446,0.00214463840399
-0.206109725686,-0.0143017456359
-0.219413965087,-0.0410473815461
-0.227019950125,-0.0529052369077
-0.228815461347,-0.0646134663342
-0.229775561097,-0.0560598503741
-0.234987531172,-0.0470947630923
-0.219675810474,-0.047680798005
-0.204064837905,-0.0529800498753
-0.203341645885,-0.0531172069825
-0.167655860349,-0.0431920199501
-0.162032418953,-0.0382418952618
-0.161558603491,-0.0383416458853
-0.161072319202,-0.0435536159601
-0.175586034913,-0.068927680798
-0.190012468828,-0.0993640897756
-0.214314214464,-0.119775561097
-0.218541147132,-0.11006234414
-0.202718204489,-0.0952119700748
-0.186832917706,-0.0903241895262
-0.165872817955,-0.0953865336658
-0.144887780549,-0.0904488778055
-0.128877805486,-0.0804987531172
-0.132867830424,-0.0854738154613
-0.121832917706,-0.0954488778055
-0.120860349127,-0.105436408978
-0.134962593516,-0.110411471322
-0.139139650873,-0.130473815461
-0.133304239401,-0.140523690773
-0.137431421446,-0.140498753117
-0.131546134663,-0.125411471322
-0.115573566085,-0.13529925187
-0.0945635910224,-0.140211970075
-0.088578553616,-0.135174563591
-0.0826433915212,-0.125049875312
-0.0817456359102,-0.119887780549
-0.0859102244389,-0.134713216958
-0.0851620947631,-0.149551122195
-0.0895012468828,-0.164438902743
-0.103802992519,-0.159376558603
-0.103117206983,-0.154351620948
-0.102369077307,-0.149239401496
-0.0915586034913,-0.144077306733
-0.080710723192,-0.15885286783
-0.0748503740648,-0.148703241895
-0.0689775561097,-0.14355361596
-0.0631172069825,-0.128391521197
-0.0572942643392,-0.113241895262
-0.0565211970075,-0.113104738155
-0.0558229426434,-0.127967581047
-0.0601620947631,-0.13789276808
-0.0745511221945,-0.132817955112
-0.0839775561097,-0.122730673317
-0.0883790523691,-0.107568578554
-0.0827306733167,-0.102344139651
-0.0620573566085,-0.0921072319202
-0.0412967581047,-0.0668329177057
-0.0155486284289,-0.0465461346633
0.000137157107232,-0.0112967581047
0.0158104738155,-0.006072319202
0.0214713216958,-0.0108603491272
0.0270947630923,-0.0156234413965
0.0326309226933,-0.000374064837905
0.0181296758105,-9.97506234414e-05
0.00859102244389,0.0151371571072
-0.000922693266833,0.01036159601
-0.0203990024938,0.000635910224439
-0.0198628428928,0.000972568578554
-0.029289276808,0.0013216957606
-0.0137157107232,0.0217331670823
-0.00315461346633,0.0370698254364
0.00233167082294,0.0173815461347
-0.00226932668329,0.00261845386534
0.0130922693267,0.0078927680798
-0.00155860349127,0.00816708229426
-0.00620947630923,0.0184912718204
-0.0108229426434,0.0138279301746
-0.0304488778055,0.00917705735661
-0.0350748129676,0.0145885286783
-0.0296633416459,0.00504987531172
-0.0242269326683,0.025536159601
-0.0138528678304,0.0210598503741
-0.0234538653367,0.0415087281796
-0.0430798004988,0.0368952618454
-0.0327182044888,0.0371695760599
-0.0273566084788,0.0424314214464
-0.00201995012469,0.0177680798005
-0.00173316708229,0.0130673316708
-0.0164713216958,0.0233541147132
-0.0162219451372,0.013578553616
-0.0259476309227,0.0138279301746
-0.0356733167082,-0.000935162094763
-0.0404114713217,0.00940149625935
-0.0251620947631,0.0197132169576
-0.0249501246883,0.0250498753117
-0.0197755610973,0.0352743142145
-0.02463840399,0.0204862842893
-0.0245386533666,0.0106483790524
-0.0195386533666,0.0107855361596
-0.0245137157107,0.00593516209476
-0.0294887780549,0.0260473815461
-0.0244763092269,0.0311221945137
-0.0144763092269,0.0111720698254
-0.00441396508728,0.0013216957606
-0.00431421446384,0.0164588528678
-0.0090897755611,0.0316583541147
-0.0188528678304,0.0568329177057
-0.0236159600998,0.0469451371571
-0.0382668329177,0.0319825436409
-0.0329301745636,0.0120199501247
-0.0275935162095,-0.00794264339152
-0.0272817955112,-0.00785536159601
-0.0269451371571,-0.00779301745636
-0.0315835411471,0.00724438902743
-0.0461097256858,0.00730673316708
-0.0405735660848,0.0123940149626
-0.0449625935162,0.00755610972569
-0.029289276808,0.0326558603491
-0.0186284289277,0.0426683291771
-0.0230174563591,0.0326309226933
-0.0274563591022,0.0175311720698
-0.0218952618454,0.00243142144638
-0.0363466334165,0.00236907730673
-0.0409102244389,0.0172942643392
-0.0405236907731,0.0272069825436
-0.0551620947631,0.0221321695761
-0.0598628428928,0.00205735660848
-0.0295511221945,-0.00796758104738
-0.02927680798,0.00201995012469
-0.0290648379052,0.0120199501247
-0.0338902743142,0.036957605985
-0.0287281795511,0.0468204488778
-0.0286783042394,0.0317206982544
-0.0236408977556,0.021608478803
-0.0287032418953,0.0165461346633
-0.0388029925187,0.0164837905237
-0.0338902743142,0.0213965087282
-0.0340024937656,0.0312718204489
-0.0191271820449,0.0362094763092
-0.0092144638404,0.0461970074813
0.0156733167082,0.0462094763092
0.0455860349127,0.0761845386534
0.0605236907731,0.0910847880299
0.0704239401496,0.105972568579
0.0852867830424,0.0658229426434
0.0851371571072,0.0607356608479
0.0899750623441,0.0456733167082
0.104763092269,0.0655610972569
0.109563591022,0.0704364089776
0.114351620948,0.0652743142145
0.129114713217,0.0351122194514
0.143940149626,0.0200124688279
0.143815461347,0.00988778054863
0.138728179551,0.0198004987531
0.128765586035,0.0246882793017
0.139039900249,0.0346009975062
0.13463840399,0.0194887780549
0.135685785536,0.00930174563591
0.117306733167,0.00915211970075
0.109613466334,0.0089650872818
0.102743142145,0.00894014962594
0.0615586034913,0.00407730673317
0.0458354114713,-0.00548628428928
0.0202244389027,0.000274314214464
0.00427680798005,-0.00371571072319
-0.00234413965087,0.00741895261845
-0.0148753117207,0.0234912718204
-0.0133665835411,0.0393017456359
-0.0176184538653,0.0297007481297
-0.0374688279302,0.0347132169576
-0.0476683291771,0.00938902743142
-0.0629675810474,-0.00109725685786
-0.0682543640898,0.0034289276808
-0.0934164588529,0.00811720698254
-0.108503740648,-0.0071072319202
-0.0885037406484,-0.00219451371571
-0.0934788029925,-0.00721945137157
-0.093578553616,0.00275561097257
-0.0937780548628,0.0226433915212
-0.0891521197007,0.0224438902743
-0.08463840399,0.0270947630923
-0.0851620947631,0.0066957605985
-0.0906982543641,-0.0137281795511
-0.0912967581047,-0.0141271820449
-0.106920199501,0.000498753117207
-0.132518703242,0.0151496259352
-0.138142144638,-0.0101496259352
-0.143802992519,-0.0203865336658
-0.154501246883,-0.0355486284289
-0.130236907731,-0.0206982543641
-0.0809975062344,0.00913965087282
-0.0217955112219,0.0340024937656
0.0724189526185,0.0387780548628
0.201633416459,0.00354114713217
0.350822942643,-0.0317331670823
0.565049875312,-0.041957605985
0.814264339152,-0.032144638404
1.09355361596,0.0126683291771
1.34790523691,0.10253117207
1.54733167082,0.187493765586
1.63187032419,0.307543640898
1.5714713217,0.422568578554
1.40613466334,0.53246882793
1.13077306733,0.577306733167
0.800436408978,0.537094763092
0.465112219451,0.441845386534
0.174812967581,0.281596009975
-0.0305112219451,0.111321695761
-0.14578553616,-0.0189526184539
-0.185985037406,-0.0992019950125
-0.17614713217,-0.129413965087
-0.15114713217,-0.124563591022
-0.106097256858,-0.0946882793017
-0.0810224438903,-0.0548503740648
-0.0809226932668,0.005
-0.110872817955,0.0397755610973
-0.145872817955,0.0344763092269
-0.170985037406,0.00913965087282
-0.17614713217,-0.0112344139651
-0.201309226933,-0.0265835411471
-0.206421446384,-0.0319201995012
-0.206483790524,-0.0222443890274
-0.21144638404,-0.012506234414
-0.201359102244,-0.0276932668329
-0.211234413965,-0.0278802992519
-0.191047381546,-0.0180922693267
-0.190847880299,-0.0133291770574
-0.175698254364,0.0164089775561
-0.190623441397,0.0160972568579
-0.190685785536,0.00073566084788
-0.205960099751,-0.00965087281796
-0.221558603491,-0.0200124688279
-0.222581047382,-0.0253366583541
-0.234114713217,-0.0156359102244
-0.226246882793,-0.035897755611
-0.22397755611,-0.0462593516209
-0.222269326683,-0.0368703241895
-0.201009975062,-0.0279052369077
-0.194912718204,-0.0193765586035
-0.198678304239,-0.0112842892768
-0.202044887781,-0.0134538653367
-0.204763092269,-0.0307356608479
-0.221708229426,-0.0429675810474
-0.217880299252,-0.0599625935162
-0.228366583541,-0.0465835411471
-0.233354114713,-0.0526683291771
-0.228029925187,-0.0732668329177
-0.222581047382,-0.0784538653367
-0.20710723192,-0.0684164588529
-0.196733167082,-0.0584164588529
-0.18644638404,-0.0435536159601
-0.161246882793,-0.0388528678304
-0.161097256858,-0.0542144638404
-0.160972568579,-0.0646009975062
-0.175847880299,-0.0750124688279
-0.18566084788,-0.0703865336658
-0.20536159601,-0.0906982543641
-0.204987531172,-0.115910224439
-0.189501246883,-0.111034912718
-0.178965087282,-0.111047381546
-0.173379052369,-0.101009975062
-0.157780548628,-0.0960349127182
-0.13216957606,-0.101122194514
-0.121558603491,-0.111172069825
-0.110997506234,-0.101184538653
-0.120486284289,-0.106184538653
-0.12,-0.106209476309
-0.119588528678,-0.121271820449
-0.119152119701,-0.131309226933
-0.123740648379,-0.161359102244
-0.118304239401,-0.146346633416
-0.112867830424,-0.156246882793
-0.0974189526185,-0.136172069825
-0.0969825436409,-0.131172069825
-0.0865087281796,-0.131172069825
-0.081072319202,-0.141209476309
-0.0755985037406,-0.141172069825
-0.0701620947631,-0.136122194514
-0.069825436409,-0.146122194514
-0.0795137157107,-0.156109725686
-0.0891895261845,-0.171122194514
-0.0988029925187,-0.196097256858
-0.103354114713,-0.181047381546
-0.0979426433915,-0.175872817955
-0.0975810473815,-0.140710723192
-0.0922319201995,-0.130548628429
-0.0868578553616,-0.130386533666
-0.0714713216958,-0.125324189526
-0.0611346633416,-0.125249376559
-0.0508354114713,-0.105124688279
-0.0455486284289,-0.0950748129676
-0.0403117206983,-0.0950498753117
-0.0350748129676,-0.125099750623
-0.0448503740648,-0.130112219451
-0.0346009975062,-0.135049875312
-0.0293516209476,-0.0999002493766
-0.0290897755611,-0.0946882793017
-0.0138403990025,-0.0694887780549
0.0113715710723,-0.0443765586035
0.0165835411471,-0.039289276808
0.031783042394,-0.0342394014963
0.0419201995012,-0.0141271820449
0.0520573566085,-0.00897755610973
0.0421945137157,-0.0188279301746
0.0373690773067,-0.00870324189526
0.00255610972569,-0.0234912718204
0.00274314214464,-0.013216957606
-0.00708229426434,0.00714463840399
-0.0369201995012,0.0425436408978
-0.0367955112219,0.0378927680798
-0.0367082294264,0.0431172069825
-0.0215586034913,0.0182418952618
-0.00143391521197,0.0234039900249
0.00366583541147,0.0286159600998
-0.00129675810474,0.0238653366584
-0.0163715710723,0.014114713217
-0.021433915212,-0.0056608478803
-0.0265211970075,-0.0104738154613
-0.0315960099751,0.00481296758105
-0.036608478803,0.0151620947631
-0.0365710723192,0.0305236907731
-0.0415336658354,0.0408354114713
-0.046433915212,0.0310972568579
-0.0314089775561,0.0263216957606
-0.0164089775561,0.0115835411471
-0.0164713216958,0.0268578553616
-0.00159600997506,0.0321072319202
-0.0217955112219,0.0223316708229
-0.0319326683292,0.017493765586
-0.0320822942643,0.00270573566085
-0.0322443890274,0.0179551122195
-0.0424189526185,0.0382917705736
-0.0325685785536,0.0336408977556
-0.0377556109726,0.0439027431421
-0.0229426433915,0.024114713217
-0.0181421446384,0.0192643391521
-0.0234039900249,0.0144264339152
-0.0186907730673,0.0245885286783
-0.0189650872818,0.0147132169576
-0.0242643391521,0.00478802992519
-0.0195511221945,-0.00513715710723
-0.0297755610973,-0.0100748129676
-0.0299251870324,0.0200623441397
-0.0350374064838,0.0302867830424
-0.0350997506234,0.0355236907731
-0.0301122194514,0.0156483790524
-0.0351246882793,0.0206857855362
-0.0151246882793,0.0256359102244
-0.0200748129676,0.0306483790524
-0.0250124688279,0.0506733167082
-0.0299002493766,0.0456483790524
-0.0347256857855,0.0205236907731
-0.0495137157107,0.010349127182
-0.0443017456359,0.000112219451372
-0.039102244389,0.0149750623441
-0.038927680798,0.0248753117207
-0.0237281795511,0.0348379052369
-0.0185162094763,0.0397007481297
-0.0133042394015,0.0195137157107
-0.0031421446384,0.0343142144638
-0.0380049875312,0.029114713217
-0.0428802992519,0.0439401496259
-0.0429052369077,0.0387655860349
-0.0430049875312,0.023566084788
-0.0432044887781,0.00334164588529
-0.0484413965087,0.00810473815461
-0.0387406483791,0.00795511221945
-0.0390648379052,0.0178678304239
-0.0493765586035,0.0328428927681
-0.0497007481297,0.0327930174564
-0.0450498753117,0.0326683291771
-0.0404114713217,0.0374563591022
-0.0358104738155,0.0472194513716
-0.0512219451372,0.0419950124688
-0.0316957605985,0.0317705735661
-0.0472194513716,0.0115211970075
-0.052680798005,0.00627182044888
-0.0281172069825,0.0110099750623
-0.033578553616,0.0457980049875
0.000960099750623,0.0706982543641
0.0255112219451,0.0956608478803
0.0300748129676,0.100648379052
0.03963840399,0.105523690773
0.0541895261845,0.11029925187
0.0637281795511,0.12506234414
0.0631920199501,0.109825436409
0.0676059850374,0.08463840399
0.0769825436409,0.0594513715711
0.0913591022444,0.0392518703242
0.105735660848,0.0240024937656
0.115149625935,0.0387780548628
0.129725685786,0.0236783042394
0.124488778055,0.0436783042394
0.129488778055,0.0337032418953
0.134800498753,0.0436284289277
0.125473815461,0.0434039900249
0.121670822943,0.0380922693267
0.103453865337,0.0378054862843
0.080897755611,0.0225935162095
0.0639775561097,-0.0173067331671
0.0375935162095,-0.036957605985
0.0214463840399,-0.0313216957606
-0.00483790523691,0.00457605985037
-0.00153366583541,0.00573566084788
-0.0139027431421,0.0170074812968
-0.0170573566085,0.0231795511222
-0.0260224438903,0.0341895261845
-0.0206857855362,0.0548004987531
-0.025897755611,0.055
-0.0414089775561,0.0398379052369
-0.0570822942643,0.0244389027431
-0.0877805486284,0.0089650872818
-0.103391521197,0.00351620947631
-0.113890274314,0.0181421446384
-0.124301745636,0.00786783042394
-0.11970074813,0.0127306733167
-0.115137157107,0.0126683291771
-0.0956608478803,0.00760598503741
-0.0812593516209,0.0325187032419
-0.0668329177057,0.0373690773067
-0.072506234414,0.0371321695761
-0.0732044887781,0.0268453865337
-0.0939650872818,0.00654613466334
-0.0997880299252,-0.0137406483791
-0.120648379052,-0.0190648379052
-0.13650872818,-0.0193890274314
-0.142344139651,-0.0197132169576
-0.138154613466,-0.0150249376559
-0.11391521197,-0.0152618453865
-0.0547381546135,-0.00544887780549
0.0244264339152,0.00436408977556
0.158541147132,0.00913965087282
0.342556109726,-0.0161346633416
0.566533665835,-0.0314962593516
0.810399002494,-0.0418453865337
1.05421446384,0.00775561097257
1.27796758105,0.112331670823
1.45168329177,0.267032418953
1.51546134663,0.426783042394
1.45431421446,0.586583541147
1.27822942643,0.696421446384
1.01719451372,0.746234413965
0.706197007481,0.731009975062
0.405199501247,0.640810473815
0.13921446384,0.475573566085
-0.0567955112219,0.270349127182
-0.177793017456,0.0800748129676
-0.223740648379,-0.0702493765586
-0.229613466334,-0.145548628429
-0.190386533666,-0.13078553616
-0.156097256858,-0.0909725685786
-0.126733167082,-0.0361221945137
-0.122294264339,-0.00627182044888
-0.122793017456,0.0135162094763
-0.128266832918,0.0382668329177
-0.148728179551,0.028029925187
-0.174127182045,0.0128428927681
-0.184563591022,-0.00243142144638
-0.205012468828,-0.0178054862843
-0.210461346633,-0.0281920199501
-0.215872817955,-0.0435536159601
-0.216271820449,-0.0238528678304
-0.216633416459,-0.00410224438903
-0.211907730673,-0.00435162094763
-0.207119700748,-0.019650872818
-0.197269326683,-0.00997506234414
-0.197431421446,-0.00533665835411
-0.187618453865,-0.000673316708229
-0.197793017456,-0.0110224438903
-0.197992518703,-0.00640897755611
-0.19319201995,-0.0118578553616
-0.183428927681,-0.0323441396509
-0.183665835411,-0.0428179551122
-0.183877805486,-0.0282543640898
-0.184027431421,-0.023566084788
-0.184077306733,-0.00879052369077
-0.204052369077,-0.0290024937656
-0.194052369077,-0.0392643391521
-0.174114713217,-0.0245386533666
-0.169314214464,-0.0248753117207
-0.169837905237,-0.0252244389027
-0.190822942643,-0.0205985037406
-0.207306733167,-0.0360473815461
-0.204351620948,-0.0664713216958
-0.206957605985,-0.0669451371571
-0.195149625935,-0.0674688279302
-0.203865336658,-0.0631421446384
-0.187917705736,-0.049114713217
-0.172044887781,-0.0604364089776
-0.175960099751,-0.0721072319202
-0.174376558603,-0.0539900249377
-0.167119700748,-0.0459975062344
-0.179102244389,-0.0329052369077
-0.180336658354,-0.0396134663342
-0.175997506234,-0.0609476309227
-0.17614713217,-0.0918578553616
-0.17602244389,-0.107256857855
-0.175760598504,-0.117406483791
-0.160448877805,-0.0923067331671
-0.155174563591,-0.0820947630923
-0.154962593516,-0.0719451371571
-0.134800498753,-0.0768827930175
-0.129625935162,-0.0869201995012
-0.119426433915,-0.107044887781
-0.12421446384,-0.107206982544
-0.128952618454,-0.127319201995
-0.133753117207,-0.137394014963
-0.138503740648,-0.147418952618
-0.138266832918,-0.172394014963
-0.138067331671,-0.167319201995
-0.11783042394,-0.137269326683
-0.137593516209,-0.117194513716
-0.127319201995,-0.13216957606
-0.116957605985,-0.152082294264
-0.0965835411471,-0.151945137157
-0.0662718204489,-0.151882793017
-0.0660099750623,-0.136845386534
-0.0607730673317,-0.126882793017
-0.0505610972569,-0.141920199501
-0.0653366583541,-0.156907730673
-0.0901246882793,-0.171857855362
-0.0948877805486,-0.166795511222
-0.114650872818,-0.161708229426
-0.0994139650873,-0.146633416459
-0.0941396508728,-0.146533665835
-0.0688528678304,-0.141483790524
-0.0585536159601,-0.136296758105
-0.0331795511222,-0.146172069825
-0.0279052369077,-0.131134663342
-0.0226433915212,-0.141134663342
-0.0173940149626,-0.146172069825
-0.017144638404,-0.156109725686
-0.0219326683292,-0.151009975062
-0.00670822942643,-0.130897755611
-0.00153366583541,-0.120735660848
-0.00130922693267,-0.100685785536
0.013927680798,-0.105598503741
0.0291770573566,-0.100498753117
0.0244389027431,-0.0753241895262
0.0497007481297,-0.050187032419
0.0549501246883,-0.0400997506234
0.055187032419,-0.0350748129676
0.0553740648379,-0.0350997506234
0.055536159601,-0.0550124688279
0.0456982543641,-0.0448628428928
0.0408354114713,-0.0397256857855
0.0409975062344,-0.00960099750623
0.0411346633416,0.0105112219451
0.0363466334165,0.0056608478803
0.0365336658354,0.00583541147132
0.0216957605985,0.0210972568579
0.0118079800499,0.0313466334165
0.0118827930175,0.0364962593516
0.0119201995012,0.0515835411471
0.0119077306733,0.0216334164589
0.0118703241895,0.0117581047382
0.0118453865337,-0.00305486284289
0.0018578553616,0.0222069825436
0.00192019950125,0.032493765586
0.0019825436409,0.0377431421446
0.00208229426434,0.0380049875312
-0.0028927680798,0.0282668329177
0.0121197007481,0.023566084788
0.0220947630923,0.023927680798
0.0321072319202,0.039289276808
0.027144638404,0.0395386533666
0.0421571072319,0.0147755610973
0.0371571072319,0.00497506234414
0.0321072319202,-0.00477556109726
0.0320074812968,-0.00445137157107
0.0219077306733,0.030885286783
0.0168453865337,0.0412593516209
0.0167581047382,0.0416458852868
0.0167206982544,0.0420573566085
0.0166832917706,0.0474812967581
0.0216832917706,0.0428802992519
0.0166458852868,0.048216957606
0.00159600997506,0.0484912718204
0.0115461346633,0.0387281795511
0.0114588528678,0.0140274314214
0.011433915212,-0.0106234413965
0.0114463840399,-0.015174563591
0.0114962593516,0.01036159601
0.011608478803,0.0309476309227
0.016783042394,0.0365336658354
0.0319950124688,0.0521072319202
0.0272443890274,0.0476309226933
0.0374812967581,0.0230922693267
0.0327182044888,0.0184788029925
0.0229675810474,0.0238029925187
0.0332044887781,0.0290399002494
0.0184164588529,0.00922693266833
0.00364089775561,-0.00567331670823
0.00381546134663,-0.0105486284289
0.00897755610973,-0.00543640897756
0.0141521197007,0.0197381546135
0.0193142144638,0.0449251870324
0.0344513715711,0.0450374064838
0.0495635910224,0.0601246882793
0.0496134663342,0.0251496259352
0.0346259351621,0.0100374064838
0.0245635910224,0.0148877805486
0.0195012468828,0.0247132169576
0.0193640897756,0.0295885286783
0.0142643391521,0.0294139650873
-0.000885286783042,0.0292518703242
-0.0110598503741,-0.000897755610973
-0.0212593516209,-0.000972568578554
-0.00640897755611,-0.00594763092269
-0.00159600997506,0.00907730673317
0.0232044887781,0.0240648379052
0.0429800498753,0.0240024937656
0.032680798005,0.0189152119701
0.0323316708229,0.0188403990025
0.021957605985,0.0187655860349
0.0165461346633,0.0236533665835
0.00118453865337,0.0284663341646
0.000835411471322,0.0232793017456
0.00552369077307,0.00809226932668
-0.00972568578554,0.013029925187
0.00507481296758,0.0330049875312
0.00988778054863,0.0479800498753
0.0346758104738,0.0629426433915
0.0544139650873,0.0678304239401
0.079102244389,0.0676433915212
0.0687406483791,0.0674438902743
0.0783665835411,0.0772693266833
0.0679301745636,0.0770698254364
0.0625311720698,0.0768578553616
0.0722194513716,0.0566334164589
0.0770698254364,0.0414588528678
0.0821571072319,0.0463591022444
0.107605985037,0.0563092269327
0.123541147132,0.0862094763092
0.160037406484,0.0910598503741
0.19210723192,0.0908229426434
0.224800498753,0.0906857855362
0.248029925187,0.0507855361596
0.251658354115,0.0412593516209
0.235399002494,0.0321695760599
0.214014962594,0.0285411471322
0.197194513716,0.040174563591
0.184738154613,0.0419201995012
0.171496259352,0.0236408977556
0.172556109726,0.0251620947631
0.172967581047,0.0362842892768
0.162905236908,0.0518952618454
0.147568578554,0.0519950124688
0.122094763092,0.0366832917706
0.0965710723192,0.0211596009975
0.0811845386534,0.0106857855362
0.0608478802993,0.0103865336658
0.0555860349127,0.0152244389027
0.0303366583541,0.0251246882793
0.0200872817955,0.0300997506234
-0.000137157107232,0.0151371571072
-0.0354239401496,0.000137157107232
-0.0407356608479,0.0151246882793
-0.0360349127182,0.0300249376559
-0.0214089775561,0.0398379052369
-0.0268079800499,0.02963840399
-0.0272194513716,0.0144014962594
-0.0276184538653,-0.000760598503741
-0.0380798004988,-0.00589775561097
-0.0535162094763,0.00397755610973
-0.068927680798,0.0238029925187
-0.0743142144638,0.0336907730673
-0.0646758104738,0.0236034912718
-0.0700249376559,0.0135536159601
-0.060349127182,0.0184289276808
-0.0656733167082,0.0133042394015
-0.0459850374065,0.0431296758105
-0.0412593516209,0.0279052369077
-0.0365461346633,0.032680798005
-0.0618453865337,-0.0124563591022
-0.0921820448878,-0.0475810473815
-0.117556109726,-0.0627057356608
-0.103029925187,-0.0429675810474
-0.0735037406484,-0.0332793017456
-0.0189152119701,-0.0185536159601
0.100648379052,-0.0238029925187
0.275224438903,-0.0290897755611
0.464775561097,-0.0243765586035
0.684251870324,-0.0197007481297
0.913740648379,0.00485037406484
1.14816708229,0.0594389027431
1.36259351621,0.129052369077
1.50195760599,0.248678304239
1.54633416459,0.393329177057
1.47068578554,0.532942643392
1.27993765586,0.637593516209
1.01417705736,0.697369077307
0.713466334165,0.657244389027
0.417780548628,0.547132169576
0.177194513716,0.391957605985
-0.0183416458853,0.216683291771
-0.123815461347,0.0463216957606
-0.179326683292,-0.0490773067332
-0.184850374065,-0.124488778055
-0.14529925187,-0.144837905237
-0.11566084788,-0.115137157107
-0.0809351620948,-0.0754114713217
-0.0760847880299,-0.0156483790524
-0.0761720698254,0.024102244389
-0.0911845386534,0.0288403990025
-0.116184538653,0.0185536159601
-0.126159600998,-0.0118079800499
-0.146097256858,-0.0222069825436
-0.15102244389,-0.0226059850374
-0.165947630923,-0.00805486284289
-0.180897755611,-0.00349127182045
-0.180773067332,-0.00886533665835
-0.180673316708,-0.0142269326683
-0.195536159601,-0.0346633416459
-0.195374064838,-0.0500997506234
-0.175112219451,-0.0255236907731
-0.169750623441,-0.025897755611
-0.164389027431,-0.0162094763092
-0.159027431421,-0.0215586034913
-0.168628428928,-0.026970074813
-0.168291770574,-0.0323940149626
-0.178017456359,-0.0228304239401
-0.182805486284,-0.0232793017456
-0.187630922693,-0.0287655860349
-0.187406483791,-0.0442269326683
-0.177132169576,-0.0396633416459
-0.18174563591,-0.0800498753117
-0.196334164589,-0.0503366583541
-0.175910224439,-0.0255985037406
-0.180548628429,-0.0158728179551
-0.175399002494,-0.0162094763092
-0.175573566085,-0.0415461346633
-0.171184538653,-0.0368952618454
-0.167369077307,-0.0472319201995
-0.154164588529,-0.0575311720698
-0.161620947631,-0.0329551122195
-0.164650872818,-0.0535536159601
-0.178092269327,-0.0644139650873
-0.181658354115,-0.0855112219451
-0.185049875312,-0.0818204488778
-0.18789276808,-0.0732793017456
-0.18006234414,-0.0597880299252
-0.171458852868,-0.0462344139651
-0.162082294264,-0.0625187032419
-0.167044887781,-0.0785037406484
-0.156608478803,-0.0690399002494
-0.160935162095,-0.0842518703242
-0.155149625935,-0.0741521197007
-0.164389027431,-0.0839152119701
-0.158715710723,-0.0887157107232
-0.153117206983,-0.10355361596
-0.137556109726,-0.103441396509
-0.127019950125,-0.0883541147132
-0.126433915212,-0.0733291770574
-0.100735660848,-0.0682543640898
-0.0849875311721,-0.0832793017456
-0.0892144638404,-0.0982793017456
-0.088391521197,-0.118266832918
-0.102655860349,-0.123216957606
-0.0969326683292,-0.128179551122
-0.101209476309,-0.118154613466
-0.105461346633,-0.123154613466
-0.104750623441,-0.123142144638
-0.0889526184539,-0.153117206983
-0.103067331671,-0.168054862843
-0.11216957606,-0.142980049875
-0.106259351621,-0.132942643392
-0.0903366583541,-0.117955112219
-0.069463840399,-0.127992518703
-0.0586034912718,-0.143042394015
-0.0577306733167,-0.148079800499
-0.0668952618454,-0.163067331671
-0.0510847880299,-0.163029925187
-0.0652743142145,-0.162967581047
-0.0794389027431,-0.172905236908
-0.0736159600998,-0.172805486284
-0.0727805486284,-0.167668329177
-0.0719451371571,-0.147543640898
-0.0461596009975,-0.127481296758
-0.035349127182,-0.117443890274
-0.0245386533666,-0.112493765586
-0.013753117207,-0.127581047382
-0.0229675810474,-0.157680798005
-0.0371820448878,-0.172743142145
-0.0463840399002,-0.167743142145
-0.0505985037406,-0.147693266833
-0.064825436409,-0.142581047382
-0.0540399002494,-0.142418952618
-0.0432543640898,-0.137294264339
-0.032493765586,-0.132219451372
-0.0117456359102,-0.112132169576
0.00903990024938,-0.0770324189526
0.0197880299252,-0.0569825436409
0.0354862842893,-0.0469201995012
0.0461970074813,-0.0518952618454
0.0469201995012,-0.0668952618454
0.0426184538653,-0.0718453865337
0.0482668329177,-0.0467082294264
0.0389027431421,-0.0365087281796
0.0395885286783,-0.0263216957606
0.0352369077307,-0.0112344139651
0.035897755611,-0.0161346633416
0.0165586034913,-0.0010349127182
0.0172194513716,0.0141271820449
0.00290523690773,0.0343017456359
0.00854114713217,0.0395261845387
0.0141271820449,0.0397132169576
0.0146633416459,0.0198004987531
0.000137157107232,-0.000137157107232
0.0106608478803,-3.74064837905e-05
0.00122194513716,0.000137157107232
-0.00319201995012,0.00538653366584
-0.00255610972569,0.000635910224439
0.00304239401496,-0.00915211970075
0.00362842892768,0.00610972568579
0.00917705735661,0.0113840399002
-0.00528678304239,0.0466832917706
-0.00478802992519,0.0469326683292
0.00072319201995,0.0421197007481
-0.00875311720698,0.0172443890274
-0.0132793017456,0.00740648379052
-0.0227306733167,0.00761845386534
-0.0122194513716,0.00291770573566
-0.0116209476309,0.0132418952618
0.00400249376559,0.0235536159601
0.00467581047382,0.0238528678304
-0.00465087281796,0.0141396508728
0.0160473815461,0.0244887780549
0.00672069825436,0.0348379052369
-0.00260598503741,0.040174563591
-0.00688279301746,0.0304114713217
-0.0211970074813,0.0106234413965
-0.0305236907731,-0.00418952618454
-0.0398379052369,-0.00894014962594
-0.0391645885287,-0.00364089775561
-0.0234413965087,0.0216334164589
-0.0276309226933,0.0319077306733
-0.0167456359102,0.0421321695761
-0.000748129675811,0.0472319201995
0.0202618453865,0.0322693266833
0.011246882793,0.00724438902743
0.012144638404,0.0121695760599
0.00796758104738,0.0170324189526
0.0136783042394,0.0118703241895
-0.0056608478803,0.00162094763092
-0.00998753117207,-0.00357855361596
-0.014289276808,-0.00374064837905
-0.0235536159601,0.0111845386534
-0.012855361596,0.0260972568579
0.00281795511222,0.0359600997506
-0.0115336658354,0.0307605985037
0.0040897755611,0.000536159600998
0.00470074812968,0.000299251870324
0.00529925187032,0.00511221945137
0.0057855361596,-0.00508728179551
-0.00877805486284,-0.00529925187032
-0.00339152119701,-0.000561097256858
-0.0180922693267,-0.0108603491272
-0.0328179551122,0.00890274314214
-0.0225187032419,0.0287655860349
-0.0171820448878,0.0236533665835
-0.0168204488778,0.0235162094763
-0.0214463840399,0.0133167082294
0.003927680798,0.0230174563591
-0.00069825436409,0.0177057356608
-0.00537406483791,0.0224438902743
-0.00507481296758,0.0072319201995
-0.014812967581,0.00200748129676
-0.00953865336658,-0.00829177057357
-0.0292394014963,0.0113840399002
-0.0289401496259,0.0160847880299
-0.0286658354115,0.0308603491272
-0.0333167082294,0.0307855361596
-0.0279426433915,0.0206857855362
-0.0225436408978,0.000586034912718
-0.00719451371571,0.000336658354115
0.00805486284289,0.0149501246883
0.028216957606,0.0495261845387
0.0384039900249,0.0591521197007
0.0336533665835,0.0588279301746
0.0490523690773,0.0485162094763
0.0447755610973,0.0631546134663
0.0359600997506,0.0678054862843
0.0526309226933,0.0674812967581
0.0548628428928,0.0872443890274
0.0826433915212,0.0720698254364
0.101009975062,0.0620199501247
0.124887780549,0.0620822942643
0.144114713217,0.0673940149626
0.178453865337,0.0730798004988
0.222618453865,0.0491271820449
0.236296758105,0.0204613466334
0.229314214464,-0.00804239401496
0.211596009975,0.00331670822943
0.173179551122,0.0243640897756
0.159152119701,0.0450498753117
0.134675810474,0.0503366583541
0.149912718204,0.0502369077307
0.155037406484,0.0449251870324
0.140124688279,0.0444014962594
0.110324189526,0.033753117207
0.0755985037406,0.0331795511222
0.0459226932668,0.0126932668329
0.0262593516209,0.00740648379052
0.00658354114713,-0.00779301745636
-0.00310473815461,0.0019825436409
-0.0178428927681,0.0117206982544
-0.0375311720698,0.0163840399002
-0.0472693266833,0.00604738154613
-0.0469950124688,0.000773067331671
-0.0367331670823,0.000573566084788
-0.0465461346633,0.00536159600998
-0.0564089775561,0.0200748129676
-0.0612842892768,0.0347381546135
-0.0612593516209,0.0143142144638
-0.0812094763092,0.00886533665835
-0.0910847880299,-0.0115087281796
-0.090897755611,-0.0218827930175
-0.0856733167082,0.0027680798005
-0.0903990024938,0.0123815461347
-0.0801371571072,0.00199501246883
-0.0798753117207,-0.00839152119701
-0.0596633416459,0.00127182044888
-0.0645137157107,0.0209226932668
-0.0694389027431,0.025536159601
-0.0843890274314,0.0150374064838
-0.104364089776,-0.000498753117207
-0.104389027431,-0.0361471321696
-0.0844763092269,-0.0567082294264
-0.0545635910224,-0.0371820448878
0.0353366583541,-0.0226309226933
0.170249376559,-0.0281172069825
0.345137157107,-0.0336408977556
0.570024937656,-0.0341271820449
0.829912718204,-0.0296009975062
1.09980049875,0.0299127182045
1.32965087282,0.119438902743
1.50950124688,0.218940149626
1.57431421446,0.318428927681
1.49910224439,0.427905236908
1.30389027431,0.512431421446
1.0387032419,0.542019950125
0.728503740648,0.521633416459
0.418379052369,0.456284289277
0.153329177057,0.315872817955
-0.0166708229426,0.145473815461
-0.116583541147,0.0201371571072
-0.161433915212,-0.0752119700748
-0.151234413965,-0.110561097257
-0.120997506234,-0.100997506234
-0.09072319202,-0.0864837905237
-0.0903990024938,-0.051970074813
-0.0899875311721,-0.0324812967581
-0.109476309227,-0.00294264339152
-0.153952618454,-0.00835411471322
-0.173354114713,0.00124688279302
-0.182680798005,-0.0191645885287
-0.202019950125,-0.0395885286783
-0.176321695761,-0.0300498753117
-0.170673316708,-0.0154987531172
-0.169962593516,-0.0060349127182
-0.17927680798,0.00341645885287
-0.168578553616,-0.0121820448878
-0.187867830424,-0.0227306733167
-0.212157107232,-0.0383416458853
-0.206483790524,-0.0289900249377
-0.215847880299,-0.0145511221945
-0.205174563591,-0.0201122194514
-0.189476309227,-0.0206234413965
-0.188665835411,-0.0261471321696
-0.192780548628,-0.0316832917706
-0.18687032419,-0.0172194513716
-0.180960099751,-0.0178428927681
-0.18,-0.0284912718204
-0.189152119701,-0.0291521197007
-0.183391521197,-0.0398628428928
-0.182780548628,-0.0605610972569
-0.187394014963,-0.051246882793
-0.182294264339,-0.0268329177057
-0.182556109726,-0.0273441396509
-0.183241895262,-0.0177805486284
-0.174513715711,-0.0281795511222
-0.1763840399,-0.0287032418953
-0.17891521197,-0.0195012468828
-0.186957605985,-0.0256483790524
-0.180274314214,-0.0421072319202
-0.163441396509,-0.0537905236908
-0.176209476309,-0.0806733167082
-0.168266832918,-0.0926309226933
-0.164476309227,-0.0795137157107
-0.169900249377,-0.0811720698254
-0.174625935162,-0.0824064837905
-0.173815461347,-0.0831670822943
-0.167693266833,-0.103503740648
-0.171458852868,-0.0936034912718
-0.170211970075,-0.0786533665835
-0.154077306733,-0.0738279301746
-0.128054862843,-0.0841521197007
-0.107057356608,-0.109551122195
-0.111097256858,-0.0899625935162
-0.0950997506234,-0.085349127182
-0.114052369077,-0.10572319202
-0.122930174564,-0.101072319202
-0.126783042394,-0.116334164589
-0.135586034913,-0.11650872818
-0.119401496259,-0.136596009975
-0.113167082294,-0.121695760599
-0.101945137157,-0.111845386534
-0.085710723192,-0.102082294264
-0.0895885286783,-0.122394014963
-0.0984289276808,-0.137693266833
-0.0823441396509,-0.152930174564
-0.0812967581047,-0.153142144638
-0.0752244389027,-0.143366583541
-0.0691271820449,-0.163665835411
-0.0629800498753,-0.16891521197
-0.061783042394,-0.174127182045
-0.0605860349127,-0.149226932668
-0.0643266832918,-0.129326683292
-0.0630673316708,-0.119463840399
-0.0568703241895,-0.129675810474
-0.0707481296758,-0.129925187032
-0.0497007481297,-0.150162094763
-0.0586783042394,-0.145411471322
-0.0476558603491,-0.135610972569
-0.0415710723192,-0.130810473815
-0.0504613466334,-0.126034912718
-0.0493765586035,-0.141259351621
-0.0482418952618,-0.141408977556
-0.0521197007481,-0.136496259352
-0.0610224438903,-0.116583541147
-0.0399501246883,-0.121708229426
-0.0288902743142,-0.106907730673
-0.0078927680798,-0.122119700748
0.0130548628429,-0.112331670823
0.0289650872818,-0.0975561097257
0.0248877805486,-0.0977057356608
0.0257980049875,-0.077855361596
0.00173316708229,-0.0679800498753
-0.00226932668329,-0.0530673316708
-0.0111970074813,-0.0381047381546
-0.000137157107232,-0.0231546134663
0.0109351620948,0.0117705735661
0.0419825436409,0.0217082294264
0.0480174563591,0.0365960099751
0.0439650872818,0.0164463840399
0.0348877805486,0.0113216957606
0.0107481296758,-0.00881546134663
0.0115960099751,-0.00390274314214
-0.00255610972569,0.00104738154613
-0.0167082294264,0.0110224438903
-0.0208728179551,0.011072319202
-0.035,0.0160847880299
-0.0340897755611,0.00109725685786
-0.0131795511222,0.0161097256858
-0.00225685785536,0.0260598503741
-0.00135910224439,0.0310099750623
-0.000448877805486,0.0310099750623
0.00537406483791,0.0209725685786
0.00113466334165,-0.0039650872818
0.00188279301746,-0.003927680798
-0.0123815461347,-0.00387780548628
-0.0166334164589,0.00623441396509
-0.015885286783,0.0313341645885
-0.0250498753117,0.0314463840399
-0.0192019950125,0.0215211970075
-0.0233541147132,0.0215835411471
-0.012493765586,0.0365960099751
-0.00665835411471,0.0566209476309
-0.0207730673317,0.0565960099751
-0.00995012468828,0.0515960099751
-0.00415211970075,0.0165960099751
-0.0134039900249,-0.0134289276808
-0.0176932668329,-0.0184413965087
-0.021970074813,-0.0134289276808
-0.0262094763092,0.00152119700748
-0.0154364089776,0.0214837905237
-0.00462593516209,0.0214713216958
0.0011970074813,0.0214713216958
0.00706982543641,0.0114837905237
0.00294264339152,0.0214713216958
-0.0061970074813,0.0363965087282
-0.0153740648379,0.0263341645885
-0.0196259351621,0.0212344139651
-0.0238902743142,-0.00887780548628
-0.0131546134663,-0.008927680798
-0.0123566084788,-0.00401496259352
-0.00148379052369,0.0208603491272
-0.000548628428928,0.0406857855362
0.000473815461347,0.0355112219451
-0.00339152119701,0.0303740648379
0.00285536159601,0.0201620947631
0.00418952618454,0.014825436409
0.000473815461347,0.0294014962594
-0.0133042394015,0.0439650872818
-0.0072319201995,0.0335910224439
-0.0212094763092,0.0183042394015
-0.0102119700748,0.00306733167082
-0.0191770573566,-0.00716957605985
-0.00811720698254,0.00258104738155
-0.0120822942643,0.032319201995
-0.0111097256858,0.0320448877805
0.00477556109726,0.0367581047382
0.00562344139651,0.0164463840399
0.011421446384,0.0211221945137
0.00214463840399,0.0357356608479
-0.00213216957606,0.04036159601
-0.0314463840399,0.0400374064838
-0.0308229426434,0.0297256857855
-0.0402244389027,0.00441396508728
-0.0496009975062,-0.0109226932668
-0.0339401496259,-0.00128428927681
-0.0133167082294,0.0233541147132
-0.00770573566085,0.0380548628429
0.0178802992519,0.052855361596
0.00847880299252,0.0476309226933
-0.000960099750623,0.0423815461347
-0.0204364089776,0.0421072319202
-0.0299127182045,0.0417456359102
-0.0444014962594,0.051421446384
-0.048927680798,0.0461596009975
-0.0484289276808,0.040885286783
-0.0379301745636,0.0306234413965
-0.017319201995,0.0353117206983
0.00829177057357,0.0450872817955
0.0189027431421,0.0748379052369
0.0395012468828,0.0946009975062
0.0550498753117,0.0993516209476
0.0655486284289,0.0939900249377
0.0860847880299,0.0835162094763
0.0866708229426,0.0830798004988
0.087493765586,0.0976433915212
0.0986408977556,0.0872443890274
0.105236907731,0.0768453865337
0.112418952618,0.0614837905237
0.130249376559,0.0561221945137
0.143765586035,0.075885286783
0.147867830424,0.0658478802993
0.157431421446,0.0610847880299
0.17210723192,0.0466209476309
0.176620947631,0.0324314214464
0.170635910224,0.0184289276808
0.18897755611,0.0244389027431
0.171558603491,0.0254114713217
0.153354114713,0.0362219451372
0.129526184539,0.0166832917706
0.10529925187,0.00177057356608
0.0758478802993,-0.00847880299252
0.0613216957606,0.00104738154613
0.0368204488778,0.0254987531172
0.0274189526185,0.0399625935162
0.0130673316708,0.0245012468828
-0.00627182044888,0.034102244389
-0.0356483790524,0.0287406483791
-0.0400997506234,0.0233790523691
-0.0446758104738,0.0229925187032
-0.0593266832918,0.0126433915212
-0.0589775561097,0.00229426433915
-0.0736533665835,-0.00305486284289
-0.0682668329177,-0.0133665835411
-0.0878678304239,0.0163216957606
-0.0824563591022,0.0310224438903
-0.0920573566085,0.0457481296758
-0.0966832917706,0.0254239401496
-0.0813715710723,0.0200374064838
-0.0811471321696,0.0195635910224
-0.0759476309227,0.00906483790524
-0.0858229426434,0.018578553616
-0.080710723192,0.0130922693267
-0.105548628429,0.0076433915212
-0.12542394015,-0.00278054862843
-0.135336658354,-0.00821695760599
-0.145236907731,0.0113591022444
-0.150137157107,0.0209476309227
-0.120099750623,0.025536159601
-0.100112219451,0.0351496259352
-0.0351371571072,0.0297506234414
0.054825436409,0.02927680798
0.169800498753,0.00882793017456
0.339800498753,-0.00159600997506
0.519812967581,-0.0219950124688
0.764825436409,-0.0323067331671
1.01486284289,0.00239401496259
1.26996259352,0.082144638404
1.46009975062,0.206970074813
1.56029925187,0.336770573566
1.49558603491,0.446546134663
1.32096009975,0.531309226933
1.04633416459,0.560985037406
0.716770573566,0.535586034913
0.412244389027,0.450149625935
0.1527680798,0.299663341646
-0.0416832917706,0.144201995012
-0.156072319202,-0.00624688279302
-0.18542394015,-0.0917082294264
-0.179763092269,-0.117082294264
-0.134089775561,-0.0824189526185
-0.0933167082294,-0.0277556109726
-0.077493765586,0.0268952618454
-0.0716458852868,0.0414837905237
-0.0857980049875,0.0411346633416
-0.10993765586,0.0507855361596
-0.139127182045,0.0353241895262
-0.168329177057,0.0148503740648
-0.187543640898,-0.00564837905237
-0.196783042394,-0.0210972568579
-0.210972568579,-0.0115710723192
-0.200112219451,0.00798004987531
-0.204189526185,0.0225436408978
-0.173204488778,0.0320947630923
-0.177194513716,0.0266209476309
-0.156209476309,0.00117206982544
-0.145174563591,-0.00426433915212
-0.154164588529,-0.00468827930175
-0.158179551122,0.0148628428928
-0.177281795511,0.00930174563591
-0.191533665835,-0.00130922693267
-0.206059850374,-0.0119326683292
-0.230947630923,-0.0124189526185
-0.226334164589,-0.00281795511222
-0.212294264339,0.00184538653367
-0.188827930175,0.00643391521197
-0.170997506234,0.000897755610973
-0.153628428928,3.74064837905e-05
-0.156571072319,-0.0111596009975
-0.169463840399,-0.00268079800499
-0.181995012469,0.00543640897756
-0.183940149626,-0.00659600997506
-0.185074812968,-0.0286284289277
-0.190411471322,-0.0453865336658
-0.19006234414,-0.0416832917706
-0.184251870324,-0.0374812967581
-0.193092269327,-0.0279426433915
-0.176795511222,-0.0380798004988
-0.165461346633,-0.0431421446384
-0.149189526185,-0.033216957606
-0.138017456359,-0.038391521197
-0.136907730673,-0.0287281795511
-0.135810473815,-0.0291396508728
-0.144738154613,-0.0395261845387
-0.1536159601,-0.0748503740648
-0.157443890274,-0.0950748129676
-0.161172069825,-0.0802493765586
-0.154825436409,-0.0803366583541
-0.143403990025,-0.0653990024938
-0.126895261845,-0.0603865336658
-0.12042394015,-0.0754114713217
-0.0989401496259,-0.0704114713217
-0.102568578554,-0.0754862842893
-0.0911970074813,-0.0755985037406
-0.0749002493766,-0.0756857855362
-0.0836783042394,-0.110735660848
-0.082506234414,-0.125835411471
-0.0963840399002,-0.125922693267
-0.0952618453865,-0.121059850374
-0.0990648379052,-0.106159600998
-0.102805486284,-0.106221945137
-0.101521197007,-0.121221945137
-0.0802244389027,-0.116209476309
-0.0689027431421,-0.136197007481
-0.0526309226933,-0.106309226933
-0.0413840399002,-0.116471321696
-0.045187032419,-0.141658354115
-0.0490274314214,-0.146820448878
-0.0578802992519,-0.141857855362
-0.0667581047382,-0.131845386534
-0.0705860349127,-0.121857855362
-0.0744389027431,-0.116845386534
-0.0732793017456,-0.12680798005
-0.0870822942643,-0.116695760599
-0.0809102244389,-0.106558603491
-0.0697506234414,-0.101433915212
-0.0485910224439,-0.076433915212
-0.0374812967581,-0.0815461346633
-0.0364089775561,-0.101683291771
-0.04536159601,-0.0967955112219
-0.0343266832918,-0.101832917706
-0.0332418952618,-0.0967955112219
-0.0171321695761,-0.066783042394
-0.0260099750623,-0.061783042394
-0.0298503740648,-0.0517456359102
-0.0086783042394,-0.0366832917706
0.00245635910224,-0.0265336658354
0.0235286783042,-0.00642144638404
0.0445635910224,-0.0013216957606
0.0455610972569,-0.00633416458853
0.0465960099751,-0.00633416458853
0.0325685785536,-0.00129675810474
0.028566084788,0.0188403990025
0.00956359102244,0.0240024937656
-0.004463840399,0.0141396508728
-0.00850374064838,0.01927680798
-0.0325311720698,0.0394264339152
-0.0215461346633,0.0445885286783
-0.0155735660848,0.059812967581
0.00537406483791,0.0550498753117
0.0113216957606,0.0402244389027
-0.0027680798005,0.0253990024938
-0.00187032418953,0.0254987531172
-0.00600997506234,0.0256109725686
-0.0101620947631,0.0307481296758
-0.0143266832918,0.0259351620948
-0.0135411471322,0.0311346633416
-0.0277182044888,0.0213216957606
-0.0268952618454,0.0215336658354
-0.0160598503741,0.0317955112219
-0.0252119700748,0.0371197007481
-0.0243765586035,0.0274189526185
-0.0185411471322,0.0276683291771
-0.017680798005,0.017855361596
-0.0268453865337,0.0229925187032
-0.0310847880299,0.0330922693267
-0.0252867830424,0.0382044887781
-0.029463840399,0.0283291770574
-0.0236533665835,0.00349127182045
-0.0278179551122,-0.00630922693267
-0.0320199501247,-0.00109725685786
-0.0262593516209,-0.010885286783
-0.0255610972569,0.01427680798
-0.0149251870324,0.0243516209476
-0.00435162094763,0.00945137157107
-0.0038029925187,0.00448877805486
-0.00325436408978,-0.0104862842893
-0.027680798005,0.0194763092269
-0.0320698254364,0.00441396508728
-0.0364089775561,0.0193516209476
-0.045710723192,0.0043391521197
-0.0449750623441,-0.00557356608479
-0.0242019950125,0.00452618453865
-0.0183790523691,0.0296259351621
-0.0074812967581,0.03463840399
-0.0115835411471,0.0496134663342
-0.00563591022444,0.0296134663342
-0.00968827930175,0.0245885286783
-0.0187281795511,0.00952618453865
-0.0177556109726,0.0144763092269
-0.0217705735661,0.0243765586035
-0.0257356608479,0.0343017456359
-0.0296758104738,0.0242019950125
-0.00861596009975,0.00411471321696
-0.017493765586,0.00402743142145
-0.0113715710723,0.0139152119701
-0.00526184538653,0.0387655860349
-0.00912718204489,0.0336034912718
-0.00302992518703,0.0334164588529
-0.0169825436409,0.0332294264339
-0.0260224438903,0.0129925187032
-0.0351246882793,0.0227431421446
-0.0493142144638,0.017506234414
-0.0485286783042,0.0122568578554
-0.0578179551122,0.0170947630923
-0.0471197007481,0.00200748129676
-0.051433915212,0.0119077306733
-0.0357605985037,0.0168703241895
-0.025174563591,0.0467955112219
-0.0195885286783,0.0516832917706
-0.00903990024938,0.0465211970075
-0.0185411471322,0.0263092269327
-0.0280673316708,0.00605985037406
-0.0276184538653,0.000798004987531
-0.0271695760599,0.0154987531172
-0.0317581047382,0.0202618453865
-0.0363591022444,0.0201122194514
-0.0159850374065,0.0250498753117
-0.0105985037406,0.0399750623441
-0.000149625935162,0.0599127182045
0.015349127182,0.0798004987531
0.035885286783,0.08963840399
0.0513466334165,0.0844763092269
0.0468204488778,0.069289276808
0.0621820448878,0.0540523690773
0.0724688279302,0.0538279301746
0.0727182044888,0.0635910224439
0.0779551122195,0.0583790523691
0.103204488778,0.048216957606
0.113591022444,0.0380798004988
0.124014962594,0.0330174563591
0.129613466334,0.0429675810474
0.120448877805,0.0429301745636
0.116583541147,0.0578054862843
0.113092269327,0.0476184538653
0.115049875312,0.0223815461347
0.117630922693,0.00713216957606
0.0958104738155,-0.0130548628429
0.0846009975062,-0.0330049875312
0.0588528678304,-0.0276683291771
0.0383291770574,-0.0320199501247
0.0276683291771,-0.0360598503741
0.0215960099751,-0.0248503740648
0.00990024937656,-0.00354114713217
0.00241895261845,0.0277306733167
-0.0208104738155,0.0487655860349
-0.0346882793017,0.0393765586035
-0.0590773067332,0.0345511221945
-0.0687905236908,0.0193516209476
-0.0786159600998,-0.00605985037406
-0.0834289276808,-0.00648379052369
-0.10812967581,-0.0018578553616
-0.102730673317,-0.00711970074813
-0.0922817955112,-0.00720698254364
-0.096783042394,-0.0122443890274
-0.0863466334165,-0.00724438902743
-0.0859476309227,0.0177805486284
-0.0906857855362,0.0276932668329
-0.090536159601,0.022506234414
-0.0904862842893,0.00220698254364
-0.0954987531172,-0.0081421446384
-0.110598503741,-0.00344139650873
-0.125673316708,0.0013216957606
-0.135748129676,0.0161097256858
-0.150810473815,0.00594763092269
-0.150885286783,-0.0192269326683
-0.155960099751,-0.0394264339152
-0.145997506234,-0.0446009975062
-0.131097256858,-0.0247381546135
-0.0912718204489,0.000162094763092
-0.0265461346633,0.0150249376559
0.0831172069825,0.0148379052369
0.227743142145,-0.01536159601
0.422306733167,-0.0305486284289
0.651907730673,-0.0456733167082
0.886571072319,-0.0257730673317
1.1262967581,0.0241271820449
